-5,-0.03958333347337117
-4.99875,-0.04125794798594515
-4.9975,-0.04326748540103498
-4.99625,-0.04561194571863748
-4.995,-0.04829132893875584
-4.99375,-0.05030086635384369
-4.9925,-0.05130563506138899
-4.99125,-0.05164055796390379
-4.99,-0.05164055796390379
-4.98875,-0.05164055796390379
-4.9875,-0.05164055796390379
-4.98625,-0.05197548086641858
-4.985,-0.0513056350613893
-4.98375,-0.05030086635384369
-4.9825,-0.04829132893875584
-4.98125,-0.04527702281612268
-4.98,-0.04192779379097626
-4.97875,-0.03924841057085638
-4.9775,-0.03690395025325281
-4.97625,-0.03489441283816404
-4.975,-0.03355472122810411
-4.97375,-0.0318801067155309
-4.9725,-0.03054041510547172
-4.97125,-0.02987056930044243
-4.97,-0.03087533800798651
-4.96875,-0.03221502961804569
-4.9675,-0.03355472122810487
-4.96625,-0.03489441283816466
-4.965,-0.03623410444822323
-4.96375,-0.0379087189607972
-4.9625,-0.03857856476582648
-4.96125,-0.03857856476582679
-4.96,-0.03690395025325281
-4.95875,-0.03489441283816404
-4.9575,-0.03288487542307406
-4.95625,-0.03020549220295692
-4.955,-0.02853087769038294
-4.95375,-0.02685626317780973
-4.9525,-0.02618641737277984
-4.95125,-0.02719118608032377
-4.95,-0.02920072349541254
-4.94875,-0.03087533800798575
-4.9475,-0.0318801067155309
-4.94625,-0.0318801067155309
-4.945,-0.03087533800798651
-4.94375,-0.02920072349541178
-4.9425,-0.02752610898283856
-4.94125,-0.02585149447026459
-4.94,-0.02484672576272066
-4.93875,-0.02384195705517582
-4.9375,-0.02350703415266102
-4.93625,-0.02350703415266102
-4.935,-0.02250226544511588
-4.93375,-0.02082765093254266
-4.9325,-0.01948795932248349
-4.93125,-0.0188181135174542
-4.93,-0.0184831906149391
-4.92875,-0.0184831906149391
-4.9275,-0.0188181135174539
-4.92625,-0.0194879593224844
-4.925,-0.02149749673757225
-4.92375,-0.0248467257627202
-4.9225,-0.02886580059289591
-4.92125,-0.03288487542307695
-4.92,-0.03656902735073802
-4.91875,-0.03958333347337117
-4.9175,-0.0429325624985176
-4.91625,-0.04661671442618186
-4.915,-0.05164055796390379
-4.91375,-0.0573342473066553
-4.9125,-0.06302793664940926
-4.91125,-0.06838670308964354
-4.91,-0.07207085501730626
-4.90875,-0.07341054662736485
-4.9075,-0.07274070082233586
-4.90625,-0.07006131760221751
-4.905,-0.06704701147958436
-4.90375,-0.06436762825946492
-4.9025,-0.06202316794186243
-4.90125,-0.06034855342928845
-4.9,-0.05934378472174453
-4.89875,-0.05934378472174407
-4.8975,-0.06068347633180324
-4.89625,-0.06269301374689201
-4.895,-0.06570731986952669
-4.89375,-0.06905654889467311
-4.8925,-0.07240577791982106
-4.89125,-0.07608992984748213
-4.89,-0.07843439016508814
-4.88875,-0.08010900467766136
-4.8875,-0.08044392758017613
-4.88625,-0.08044392758017613
-4.885,-0.08010900467766136
-4.88375,-0.07977408177514655
-4.8825,-0.07943915887263175
-4.88125,-0.078769313067602
-4.88,-0.07843439016508738
-4.87875,-0.07776454436005778
-4.8775,-0.07709469855502848
-4.87625,-0.07642485274999861
-4.875,-0.07608992984748381
-4.87375,-0.07608992984748381
-4.8725,-0.07642485274999876
-4.87125,-0.07675977565251341
-4.87,-0.07642485274999861
-4.86875,-0.07575500694496931
-4.8675,-0.07508516113993943
-4.86625,-0.07475023823742463
-4.865,-0.07441531533490983
-4.86375,-0.07475023823742463
-4.8625,-0.07475023823742463
-4.86125,-0.07475023823742463
-4.86,-0.07475023823742463
-4.85875,-0.07408039243239396
-4.8575,-0.07173593211479148
-4.85625,-0.06872162599215834
-4.855,-0.06403270535695332
-4.85375,-0.05833901601419968
-4.8525,-0.0506357892563594
-4.85125,-0.03958333347337117
-4.85,-0.02417687995768117
-4.84875,-0.003411660001773335
-4.8475,0.02271232639438066
-4.84625,0.05319031052321313
-4.845,0.08735244657973606
-4.84375,0.1241939658563635
-4.8425,0.1620402538405353
-4.84125,0.1995516189222086
-4.84,0.2353883694912754
-4.83875,0.2672060452301809
-4.8375,0.2950046461388962
-4.83625,0.3187841722174592
-4.835,0.3392144692708617
-4.83375,0.3559606143966015
-4.8325,0.3696924533997122
-4.83125,0.3787353717676075
-4.83,0.3830893695002999
-4.82875,0.3820846007927559
-4.8275,0.3750512198399382
-4.82625,0.3606495350318086
-4.825,0.3392144692708617
-4.82375,0.311750791264661
-4.8225,0.2799331155257431
-4.82125,0.2447662107616896
-4.82,0.2079246914850622
-4.81875,0.1710831722084189
-4.8175,0.1362511903468961
-4.81625,0.1040985917054758
-4.815,0.07563014499173119
-4.81375,0.05051092730310863
-4.8125,0.02807109283461738
-4.81125,0.008310641586244484
-4.81,-0.009775195149562052
-4.80875,-0.02652134027529418
-4.8075,-0.04092302508343035
-4.80625,-0.05398501828150141
-4.805,-0.06503747406449559
-4.80375,-0.07441531533490983
-4.8025,-0.0824534649952649
-4.80125,-0.09015669175310839
-4.8,-0.09719007270591587
-4.79875,-0.105228222366271
-4.7975,-0.1129314491241077
-4.79625,-0.1196299071744096
-4.795,-0.1249886736146439
-4.79375,-0.1290077484448214
-4.7925,-0.1320220545674532
-4.79125,-0.1336966690800285
-4.79,-0.1347014377875729
-4.78875,-0.1340315919825433
-4.7875,-0.1323569774699681
-4.78625,-0.129677594249851
-4.785,-0.1266632881272178
-4.78375,-0.1239839049071007
-4.7825,-0.1216394445894959
-4.78125,-0.1202997529794367
-4.78,-0.1196299071744071
-4.77875,-0.1196299071744074
-4.7775,-0.1202997529794367
-4.77625,-0.1206346758819515
-4.775,-0.1209695987844662
-4.77375,-0.1209695987844663
-4.7725,-0.1202997529794367
-4.77125,-0.1192949842718923
-4.77,-0.1189600613693778
-4.76875,-0.1196299071744071
-4.7675,-0.1216394445894959
-4.76625,-0.1239839049070984
-4.765,-0.1256585194196741
-4.76375,-0.1269982110297326
-4.7625,-0.1286728255423066
-4.76125,-0.1296775942498505
-4.76,-0.129677594249851
-4.75875,-0.128002979737277
-4.7575,-0.1259934423221882
-4.75625,-0.1239839049070987
-4.755,-0.1223092903945255
-4.75375,-0.1206346758819515
-4.7525,-0.1196299071744076
-4.75125,-0.1189600613693775
-4.75,-0.1196299071744071
-4.74875,-0.1209695987844663
-4.7475,-0.1223092903945258
-4.74625,-0.1229791361995551
-4.745,-0.1219743674920107
-4.74375,-0.1196299071744082
-4.7425,-0.1152759094417148
-4.74125,-0.1102520659039929
-4.74,-0.105228222366271
-4.73875,-0.1002043788285465
-4.7375,-0.09451068948579752
-4.73625,-0.08781223143550163
-4.735,-0.08144869628772342
-4.73375,-0.07642485274999677
-4.7325,-0.07240577791982106
-4.73125,-0.06972639469970271
-4.73,-0.06704701147958558
-4.72875,-0.06537239696701039
-4.7275,-0.06436762825946599
-4.72625,-0.06470255116198079
-4.725,-0.06637716567455598
-4.72375,-0.06905654889467311
-4.7225,-0.07274070082233586
-4.72125,-0.07642485274999693
-4.72,-0.08010900467766136
-4.71875,-0.0831233108002945
-4.7175,-0.08546777111789805
-4.71625,-0.08781223143550208
-4.715,-0.088817000143046
-4.71375,-0.08848207724053123
-4.7125,-0.08714238563047264
-4.71125,-0.08446300241035368
-4.71,-0.08144869628772053
-4.70875,-0.07876931306760215
-4.7075,-0.07642485274999708
-4.70625,-0.07307562372485066
-4.705,-0.06972639469970271
-4.70375,-0.06671208857707094
-4.7025,-0.06403270535695042
-4.70125,-0.06235809084437722
-4.7,-0.06068347633180324
-4.69875,-0.06001363052677396
-4.6975,-0.06001363052677366
-4.69625,-0.05967870762425886
-4.695,-0.05867393891671448
-4.69375,-0.05632947859910954
-4.6925,-0.05331517247647776
-4.69125,-0.0509707121588742
-4.69,-0.04896117474378635
-4.68875,-0.04762148313372625
-4.6875,-0.04594686862115228
-4.68625,-0.0446071770110931
-4.685,-0.04259763959600326
-4.68375,-0.04025317927840076
-4.6825,-0.0379087189607972
-4.68125,-0.03589918154570935
-4.68,-0.03422456703313446
-4.67875,-0.03321979832559007
-4.6775,-0.03288487542307528
-4.67625,-0.03254995252056048
-4.675,-0.03254995252056048
-4.67375,-0.03388964413061966
-4.6725,-0.03690395025325144
-4.67125,-0.03958333347337178
-4.67,-0.04092302508343035
-4.66875,-0.04159287088845994
-4.6675,-0.04092302508343066
-4.66625,-0.03991825637588597
-4.665,-0.03757379605828241
-4.66375,-0.03455948993564925
-4.6625,-0.03054041510547019
-4.66125,-0.02719118608032377
-4.66,-0.025181648665235
-4.65875,-0.02451180286020571
-4.6575,-0.02417687995769061
-4.65625,-0.02350703415266102
-4.655,-0.02183241964008705
-4.65375,-0.01915303641996732
-4.6525,-0.01613873029733554
-4.65125,-0.01312442417470238
-4.65,-0.0101101180520706
-4.64875,-0.007430734831950872
-4.6475,-0.004081505806802925
-4.64625,-6.243097662538694e-05
-4.645,0.004626489658583872
-4.64375,0.009315410293788868
-4.6425,0.014004330928996
-4.64125,0.01869325156420099
-4.64,0.02338217219941162
-4.63875,0.0263964783220434
-4.6375,0.02807109283461738
-4.63625,0.02840601573713202
-4.635,0.02773616993210258
-4.63375,0.0267314012245582
-4.6325,0.02572663251701381
-4.63125,0.02472186380946928
-4.63,0.02438694090695464
-4.62875,0.0263964783220434
-4.6275,0.0310853989572484
-4.62625,0.03711401120251684
-4.625,0.04414739215532753
-4.62375,0.05084585020562343
-4.6225,0.05620461664586197
-4.62125,0.06022369147603768
-4.62,0.06256815179364125
-4.61875,0.06390784340369982
-4.6175,0.06457768920873
-4.61625,0.06457768920873
-4.615,0.06390784340370043
-4.61375,0.06290307469615557
-4.6125,0.06189830598861165
-4.61125,0.06189830598861165
-4.61,0.06256815179364095
-4.60875,0.06457768920873122
-4.6075,0.06725707242884837
-4.60625,0.07027137855148152
-4.605,0.07261583886908403
-4.60375,0.07496029918668864
-4.6025,0.07730475950429222
-4.60125,0.07998414272441057
-4.6,0.08232860304201506
-4.59875,0.08433814045710292
-4.5975,0.08634767787219166
-4.59625,0.08869213818979417
-4.595,0.09070167560488401
-4.59375,0.09170644431242839
-4.5925,0.09304613592248756
-4.59125,0.09438582753254768
-4.59,0.09639536494763551
-4.58875,0.09873982526523908
-4.5875,0.1020890542903855
-4.58625,0.105438283315535
-4.585,0.1081176665356533
-4.58375,0.1101272039507421
-4.5825,0.1111319726582862
-4.58125,0.1104621268532569
-4.58,0.1097922810482273
-4.57875,0.1094573581457127
-4.5775,0.1091224352431973
-4.57625,0.1081176665356533
-4.575,0.1057732062180498
-4.57375,0.1024239771929034
-4.5725,0.09806997946020948
-4.57125,0.09137152140991359
-4.57,0.08333337174955852
-4.56875,0.07395553047913986
-4.5675,0.06424276630621523
-4.56625,0.05553477084083055
-4.565,0.04816646698550842
-4.56375,0.04180293183772396
-4.5625,0.03610924249497245
-4.56125,0.03041555315222094
-4.56,0.02438694090695174
-4.55875,0.01802340575917353
-4.5575,0.01165987061139243
-4.55625,0.005296335463614224
-4.555,-0.001737045489199361
-4.55375,-0.008770426442010051
-4.5525,-0.01546888449230595
-4.55125,-0.02216734254260489
-4.55,-0.02886580059289774
-4.54875,-0.03422456703313446
-4.5475,-0.03991825637588338
-4.54625,-0.04628179152367012
-4.545,-0.05298024957396297
-4.54375,-0.06001363052677366
-4.5425,-0.06738193438209579
-4.54125,-0.07374546952988023
-4.54,-0.07910423597011695
-4.53875,-0.08379315660532408
-4.5375,-0.08680746272795832
-4.53625,-0.0891519230455608
-4.535,-0.09049161465561997
-4.53375,-0.09149638336316392
-4.5325,-0.09317099787573835
-4.53125,-0.0955154581933419
-4.53,-0.09886468721848984
-4.52875,-0.1035536078536997
-4.5275,-0.1095822200989633
-4.52625,-0.1156108323442296
-4.525,-0.1223092903945224
-4.52375,-0.1286728255423066
-4.5225,-0.1343665148850581
-4.52125,-0.1390554355202653
-4.52,-0.1434094332529588
-4.51875,-0.1460888164730759
-4.5175,-0.1484332767906795
-4.51625,-0.1501078913032527
-4.515,-0.151447582913313
-4.51375,-0.1521174287183422
-4.5125,-0.1517825058158274
-4.51125,-0.1511126600107981
-4.51,-0.150777737108283
-4.50875,-0.1494380454982239
-4.5075,-0.1477634309856499
-4.50625,-0.1460888164730752
-4.505,-0.1444142019605019
-4.50375,-0.142739587447928
-4.5025,-0.141734818740384
-4.50125,-0.1413998958378688
-4.5,-0.1413998958378688
-4.49875,-0.141064972935354
-4.4975,-0.1403951271303241
-4.49625,-0.1397252813252948
-4.495,-0.13939035842278
-4.49375,-0.1387205126177508
-4.4925,-0.1377157439102061
-4.49125,-0.1363760523001469
-4.49,-0.1350363606900877
-4.48875,-0.1340315919825432
-4.4875,-0.1336966690800285
-4.48625,-0.1330268232749989
-4.485,-0.1316871316649404
-4.48375,-0.1296775942498499
-4.4825,-0.1273331339322474
-4.48125,-0.1253235965171587
-4.48,-0.1236489820045854
-4.47875,-0.1229791361995551
-4.4775,-0.1236489820045847
-4.47625,-0.1243188278096143
-4.475,-0.1246537507121295
-4.47375,-0.1256585194196735
-4.4725,-0.1269982110297326
-4.47125,-0.1276680568347619
-4.47,-0.1286728255423066
-4.46875,-0.1300125171523658
-4.4675,-0.1316871316649398
-4.46625,-0.1326919003724841
-4.465,-0.1326919003724841
-4.46375,-0.1316871316649398
-4.4625,-0.1296775942498519
-4.46125,-0.1266632881272178
-4.46,-0.1233140591020699
-4.45875,-0.1209695987844663
-4.4575,-0.1196299071744068
-4.45625,-0.1189600613693775
-4.455,-0.1186251384668628
-4.45375,-0.1182902155643481
-4.4525,-0.1179552926618326
-4.45125,-0.116615601051774
-4.45,-0.1156108323442296
-4.44875,-0.115275909441715
-4.4475,-0.1156108323442296
-4.44625,-0.116615601051774
-4.445,-0.1179552926618332
-4.44375,-0.1192949842718929
-4.4425,-0.1206346758819515
-4.44125,-0.1209695987844663
-4.44,-0.1209695987844663
-4.43875,-0.1209695987844663
-4.4375,-0.1206346758819515
-4.43625,-0.1196299071744071
-4.435,-0.1182902155643472
-4.43375,-0.116615601051774
-4.4325,-0.1146060636366852
-4.43125,-0.1115917575140534
-4.43,-0.1069028368788449
-4.42875,-0.1008742246335786
-4.4275,-0.09417576658328272
-4.42625,-0.08714238563046928
-4.425,-0.08111377338520573
-4.42375,-0.07642485274999861
-4.4225,-0.07374546952988145
-4.42125,-0.07341054662736637
-4.42,-0.07542008404245421
-4.41875,-0.07876931306760215
-4.4175,-0.08412807950783643
-4.41625,-0.0898217688505904
-4.415,-0.0955154581933419
-4.41375,-0.09953453302351944
-4.4125,-0.1018789933411233
-4.41125,-0.1025488391461526
-4.41,-0.1015440704386082
-4.40875,-0.09886468721849107
-4.4075,-0.09451068948579752
-4.40625,-0.09049161465561997
-4.405,-0.08714238563047202
-4.40375,-0.08479792531286756
-4.4025,-0.0827883878977797
-4.40125,-0.08144869628772053
-4.4,-0.07977408177514732
-4.39875,-0.07876931306760215
-4.3975,-0.07809946726257258
-4.39625,-0.07776454436005778
-4.395,-0.07809946726257289
-4.39375,-0.07876931306760215
-4.3925,-0.08044392758017613
-4.39125,-0.08345823370280793
-4.39,-0.08781223143550376
-4.38875,-0.09250115207070875
-4.3875,-0.0965202269008863
-4.38625,-0.09986945592603272
-4.385,-0.1025488391461526
-4.38375,-0.1032186849511822
-4.3825,-0.101878993341123
-4.38125,-0.09819484141345829
-4.38,-0.09384084368076792
-4.37875,-0.0891519230455608
-4.3775,-0.08446300241035581
-4.37625,-0.07943915887263175
-4.375,-0.07508516113993943
-4.37375,-0.07073116340724708
-4.3725,-0.06671208857706834
-4.37125,-0.06403270535695119
-4.37,-0.06202316794186243
-4.36875,-0.06135332213683314
-4.3675,-0.06135332213683284
-4.36625,-0.06168824503934763
-4.365,-0.06269301374689201
-4.36375,-0.0640327053569521
-4.3625,-0.06604224277203996
-4.36125,-0.06905654889467311
-4.36,-0.07441531533490739
-4.35875,-0.08211854209275436
-4.3575,-0.09149638336316437
-4.35625,-0.1005393017310638
-4.355,-0.107907605586386
-4.35375,-0.1122616033190816
-4.3525,-0.1136012949291408
-4.35125,-0.1119266804165669
-4.35,-0.1085774513914168
-4.34875,-0.1038885307562118
-4.3475,-0.09852976431597507
-4.34625,-0.0925011520707115
-4.345,-0.08546777111789805
-4.34375,-0.07876931306760215
-4.3425,-0.07274070082233586
-4.34125,-0.06771685728461165
-4.34,-0.06269301374689201
-4.33875,-0.05800409311168489
-4.3375,-0.05498978698905311
-4.33625,-0.05331517247647776
-4.335,-0.05331517247647776
-4.33375,-0.05465486408653694
-4.3325,-0.05699932440414142
-4.33125,-0.05900886181922927
-4.33,-0.06068347633180324
-4.32875,-0.06101839923431789
-4.3275,-0.06101839923431805
-4.32625,-0.06101839923431805
-4.325,-0.06135332213683284
-4.32375,-0.06135332213683284
-4.3225,-0.06168824503934763
-4.32125,-0.06168824503934763
-4.32,-0.06135332213683284
-4.31875,-0.06068347633180294
-4.3175,-0.06001363052677366
-4.31625,-0.05934378472174407
-4.315,-0.05833901601420014
-4.31375,-0.05800409311168489
-4.3125,-0.0573342473066553
-4.31125,-0.0573342473066553
-4.31,-0.05800409311168581
-4.30875,-0.06001363052677366
-4.3075,-0.06336285955192161
-4.30625,-0.06771685728461195
-4.305,-0.07207085501730626
-4.30375,-0.07508516113993943
-4.3025,-0.07608992984748381
-4.30125,-0.07575500694496839
-4.3,-0.07441531533490983
-4.29875,-0.07341054662736546
-4.2975,-0.07274070082233616
-4.29625,-0.07274070082233601
-4.295,-0.07307562372485066
-4.29375,-0.07307562372485066
-4.2925,-0.07207085501730671
-4.29125,-0.07073116340724708
-4.29,-0.06939147179718791
-4.28875,-0.06805178018712874
-4.2875,-0.06704701147958375
-4.28625,-0.06570731986952516
-4.285,-0.06470255116198079
-4.28375,-0.06336285955192222
-4.2825,-0.06202316794186243
-4.28125,-0.06034855342928845
-4.28,-0.05900886181922927
-4.27875,-0.05766917020916933
-4.2775,-0.05599455569659612
-4.27625,-0.05431994118402215
-4.275,-0.05431994118402215
-4.27375,-0.05565963279408132
-4.2725,-0.05934378472174407
-4.27125,-0.06470255116198079
-4.27,-0.07039624050473445
-4.26875,-0.07508516113993943
-4.2675,-0.07809946726257258
-4.26625,-0.07943915887263114
-4.265,-0.0794391588726316
-4.26375,-0.07910423597011695
-4.2625,-0.07776454436005778
-4.26125,-0.07542008404245527
-4.26,-0.07274070082233586
-4.25875,-0.06905654889467311
-4.2575,-0.06537239696701039
-4.25625,-0.06168824503934611
-4.255,-0.05833901601419968
-4.25375,-0.05498978698905174
-4.2525,-0.05164055796390531
-4.25125,-0.04829132893875584
-4.25,-0.04661671442618186
-4.24875,-0.04628179152366707
-4.2475,-0.04728656023121222
-4.24625,-0.04896117474378543
-4.245,-0.05164055796390379
-4.24375,-0.05398501828150628
-4.2425,-0.0569993244041405
-4.24125,-0.05934378472174407
-4.24,-0.06202316794186243
-4.23875,-0.06436762825946736
-4.2375,-0.06738193438209913
-4.23625,-0.06972639469970271
-4.235,-0.07140100921227592
-4.23375,-0.0724057779198209
-4.2325,-0.07207085501730626
-4.23125,-0.07039624050473231
-4.23,-0.06771685728461516
-4.22875,-0.06403270535695119
-4.2275,-0.05900886181922927
-4.22625,-0.05398501828150735
-4.225,-0.04896117474378345
-4.22375,-0.0446071770110931
-4.2225,-0.04092302508343035
-4.22125,-0.03857856476582786
-4.22,-0.0379087189607972
-4.21875,-0.03857856476582679
-4.2175,-0.04092302508343035
-4.21625,-0.04427225410858028
-4.215,-0.04862625184127063
-4.21375,-0.05365009537899255
-4.2125,-0.05800409311168291
-4.21125,-0.06068347633180324
-4.21,-0.06135332213683284
-4.20875,-0.06001363052677366
-4.2075,-0.05766917020916918
-4.20625,-0.05565963279408132
-4.205,-0.05365009537899255
-4.20375,-0.0516405579639047
-4.2025,-0.04896117474378436
-4.20125,-0.04661671442618186
-4.2,-0.04393733120606351
-4.19875,-0.04192779379097565
-4.1975,-0.04025317927840076
-4.19625,-0.03958333347337117
-4.195,-0.03958333347337117
-4.19375,-0.04058810218091632
-4.1925,-0.04226271669348954
-4.19125,-0.04527702281612268
-4.19,-0.0492960976462984
-4.18875,-0.05431994118402215
-4.1875,-0.06034855342928845
-4.18625,-0.06637716567455476
-4.185,-0.07140100921227836
-4.18375,-0.07508516113993943
-4.1825,-0.07709469855502818
-4.18125,-0.07742962145754283
-4.18,-0.07675977565251341
-4.17875,-0.07575500694496901
-4.1775,-0.07441531533490983
-4.17625,-0.07274070082233509
-4.175,-0.07106608630976188
-4.17375,-0.06905654889467311
-4.1725,-0.06671208857707063
-4.17125,-0.06470255116197987
-4.17,-0.06269301374689201
-4.16875,-0.06101839923431805
-4.1675,-0.05934378472174483
-4.16625,-0.0576691702091701
-4.165,-0.0569993244041405
-4.16375,-0.05666440150162571
-4.1625,-0.0566644015016254
-4.16125,-0.05599455569659612
-4.16,-0.05465486408653694
-4.15875,-0.05298024957396373
-4.1575,-0.05030086635384461
-4.15625,-0.04695163732869666
-4.155,-0.04393733120606351
-4.15375,-0.04092302508342898
-4.1525,-0.0379087189607972
-4.15125,-0.03556425864319364
-4.15,-0.03355472122810579
-4.14875,-0.0315451838130161
-4.1475,-0.02953564639792733
-4.14625,-0.02819595478786815
-4.145,-0.02685626317780836
-4.14375,-0.02551657156774979
-4.1425,-0.02417687995769061
-4.14125,-0.02350703415266133
-4.14,-0.02350703415266102
-4.13875,-0.02350703415266102
-4.1375,-0.02317211125014623
-4.13625,-0.0221673425426023
-4.135,-0.02149749673757225
-4.13375,-0.02116257383505746
-4.1325,-0.02183241964008705
-4.13125,-0.02283718834763144
-4.13,-0.02283718834763144
-4.12875,-0.02149749673757225
-4.1275,-0.01881811351745511
-4.12625,-0.01546888449230595
-4.125,-0.012119655467158
-4.12375,-0.009105349344524847
-4.1225,-0.006425966124405727
-4.12125,-0.004751351611832514
-4.12,-0.003411660001773335
-4.11875,-0.003076737099258692
-4.1175,-0.004081505806802925
-4.11625,-0.005756120319376899
-4.115,-0.008100580636980463
-4.11375,-0.01111488675961514
-4.1125,-0.01446411578476156
-4.11125,-0.01714349900487992
-4.11,-0.01881811351745313
-4.10875,-0.01948795932248364
-4.1075,-0.01982288222499828
-4.10625,-0.02015780512751307
-4.105,-0.02149749673757164
-4.10375,-0.02384195705517582
-4.1025,-0.02786103188535335
-4.10125,-0.03321979832559007
-4.1,-0.03991825637588917
-4.09875,-0.04695163732869666
-4.0975,-0.05298024957396297
-4.09625,-0.05800409311168261
-4.095,-0.06202316794186243
-4.09375,-0.06503747406449559
-4.0925,-0.06671208857706956
-4.09125,-0.06805178018712874
-4.09,-0.06805178018712874
-4.08875,-0.06771685728461393
-4.0875,-0.06838670308964323
-4.08625,-0.07039624050473231
-4.085,-0.07408039243239503
-4.08375,-0.07843439016508738
-4.0825,-0.08345823370281129
-4.08125,-0.08781223143550163
-4.08,-0.09116146046064957
-4.07875,-0.0938408436807667
-4.0775,-0.09585038109585731
-4.07625,-0.09719007270591587
-4.075,-0.0968551498034011
-4.07375,-0.09551545819334251
-4.0725,-0.09417576658328272
-4.07125,-0.09250115207070875
-4.07,-0.09149638336316437
-4.06875,-0.09015669175310474
-4.0675,-0.0891519230455608
-4.06625,-0.08747730853298682
-4.065,-0.08546777111789897
-4.06375,-0.0831233108002945
-4.0625,-0.08077885048269093
-4.06125,-0.07809946726257258
-4.06,-0.07542008404245283
-4.05875,-0.07240577791982106
-4.0575,-0.07006131760221751
-4.05625,-0.06905654889467357
-4.055,-0.07073116340724708
-4.05375,-0.07341054662736546
-4.0525,-0.07642485274999861
-4.05125,-0.07977408177514778
-4.05,-0.0824534649952649
-4.04875,-0.08379315660532408
-4.0475,-0.08345823370280946
-4.04625,-0.081448696287719
-4.045,-0.07809946726257258
-4.04375,-0.07374546952988023
-4.0425,-0.06872162599216063
-4.04125,-0.06403270535695119
-4.04,-0.05900886181922927
-4.03875,-0.05431994118402215
-4.0375,-0.04929609764629871
-4.03625,-0.04594686862115228
-4.035,-0.04393733120606351
-4.03375,-0.04259763959600494
-4.0325,-0.03991825637588597
-4.03125,-0.03556425864319364
-4.03,-0.02853087769038294
-4.02875,-0.01848319061493285
-4.0275,-0.004751351611832514
-4.02625,0.01433925383151079
-4.025,0.03912354861759433
-4.02375,0.06926660984393715
-4.0225,0.1030938229979314
-4.02125,0.1392654964695292
-4.02,0.1757720928436579
-4.01875,0.2109389976076953
-4.0175,0.2430915962491156
-4.01625,0.2722298887678895
-4.015,0.2983538751640671
-4.01375,0.3211286325350629
-4.0125,0.3408890837834357
-4.01125,0.3569653831041386
-4.01,0.3690226075946785
-4.00875,0.3767258343525188
-4.0075,0.3787353717676075
-4.00625,0.3750512198399401
-4.005,0.3646686098619861
-4.00375,0.3482573876387612
-4.0025,0.3258175531702802
-4.00125,0.2986887980665716
-4,0.2688806597427548
-3.99875,0.2377328298088789
-3.9975,0.2059151540699734
-3.99625,0.1730927096235235
-3.995,0.1399353422745588
-3.99375,0.1077827436331385
-3.9925,0.07730475950429222
-3.99125,0.04917123569304945
-3.99,0.02371709510192505
-3.98875,0.001277260633433792
-3.9875,-0.01747842190739472
-3.98625,-0.03321979832559007
-3.985,-0.04594686862115228
-3.98375,-0.05565963279408132
-3.9825,-0.06369778245443641
-3.98125,-0.07039624050473231
-3.98,-0.07575500694496901
-3.97875,-0.08111377338520573
-3.9775,-0.08714238563047202
-3.97625,-0.09417576658328272
-3.975,-0.1015440704386082
-3.97375,-0.1085774513914189
-3.9725,-0.1142711407341704
-3.97125,-0.1186251384668628
-3.97,-0.1213045216869811
-3.96875,-0.1229791361995551
-3.9675,-0.1236489820045847
-3.96625,-0.1236489820045847
-3.965,-0.1239839049070995
-3.96375,-0.1256585194196735
-3.9625,-0.1273331339322474
-3.96125,-0.1286728255423066
-3.96,-0.1303474400548806
-3.95875,-0.1326919003724841
-3.9575,-0.1353712835926025
-3.95625,-0.1390554355202653
-3.955,-0.1424046645454132
-3.95375,-0.1450840477655315
-3.9525,-0.1454189706680463
-3.95125,-0.1444142019605019
-3.95,-0.142739587447928
-3.94875,-0.141064972935354
-3.9475,-0.1390554355202653
-3.94625,-0.1367109752026617
-3.945,-0.1347014377875729
-3.94375,-0.1330268232749989
-3.9425,-0.1303474400548806
-3.94125,-0.1269982110297326
-3.94,-0.1229791361995551
-3.93875,-0.1189600613693775
-3.9375,-0.1152759094417148
-3.93625,-0.1125965262215964
-3.935,-0.1112568346115373
-3.93375,-0.1102520659039929
-3.9325,-0.1099171430014781
-3.93125,-0.1102520659039929
-3.93,-0.1112568346115373
-3.92875,-0.1119266804165669
-3.9275,-0.1119266804165669
-3.92625,-0.1112568346115373
-3.925,-0.1105869888065077
-3.92375,-0.1095822200989633
-3.9225,-0.1092472971964485
-3.92125,-0.1099171430014781
-3.92,-0.1105869888065077
-3.91875,-0.1109219117090225
-3.9175,-0.1102520659039929
-3.91625,-0.1095822200989633
-3.915,-0.1075726826838745
-3.91375,-0.105228222366271
-3.9125,-0.1022139162436378
-3.91125,-0.09886468721848984
-3.91,-0.09518053529082712
-3.90875,-0.09149638336316437
-3.9075,-0.08747730853298682
-3.90625,-0.0834582337028093
-3.905,-0.07910423597011695
-3.90375,-0.07575500694496901
-3.9025,-0.07307562372485066
-3.90125,-0.07106608630976188
-3.9,-0.07006131760221751
-3.89875,-0.07006131760221751
-3.8975,-0.07140100921227668
-3.89625,-0.07374546952988023
-3.895,-0.07709469855502818
-3.89375,-0.08077885048269093
-3.8925,-0.0834582337028093
-3.89125,-0.08412807950783888
-3.89,-0.08379315660532408
-3.88875,-0.0824534649952649
-3.8875,-0.08111377338520573
-3.88625,-0.07910423597011695
-3.885,-0.07642485274999861
-3.88375,-0.07274070082233586
-3.8825,-0.06905654889467311
-3.88125,-0.06436762825946599
-3.88,-0.05934378472174407
-3.87875,-0.05565963279408132
-3.8775,-0.05431994118402215
-3.87625,-0.05565963279408132
-3.875,-0.05867393891671448
-3.87375,-0.06302793664940681
-3.8725,-0.06771685728461393
-3.87125,-0.07140100921227668
-3.87,-0.07408039243239503
-3.86875,-0.07508516113993943
-3.8675,-0.07475023823742463
-3.86625,-0.07240577791982106
-3.865,-0.06939147179718791
-3.86375,-0.06570731986952516
-3.8625,-0.06202316794186243
-3.86125,-0.05800409311168489
-3.86,-0.05498978698905174
-3.85875,-0.05264532667144817
-3.8575,-0.05030086635384461
-3.85625,-0.04728656023121146
-3.855,-0.0442722541085783
-3.85375,-0.04092302508343035
-3.8525,-0.0379087189607972
-3.85125,-0.03623410444822323
-3.85,-0.03589918154570843
-3.84875,-0.03690395025325281
-3.8475,-0.03924841057085638
-3.84625,-0.04293256249851912
-3.845,-0.04695163732869666
-3.84375,-0.04896117474378543
-3.8425,-0.04896117474378543
-3.84125,-0.04661671442618186
-3.84,-0.04293256249851912
-3.83875,-0.0379087189607972
-3.8375,-0.03288487542307528
-3.83625,-0.02819595478786815
-3.835,-0.02384195705517582
-3.83375,-0.01915303641996869
-3.8325,-0.01513396158979115
-3.83125,-0.012119655467158
-3.83,-0.01044504095458403
-3.82875,-0.009440272247039642
-3.8275,-0.009440272247039642
-3.82625,-0.01011011805206923
-3.825,-0.01044504095458403
-3.82375,-0.01044504095458403
-3.8225,-0.009775195149554437
-3.82125,-0.008435503539495258
-3.82,-0.007095811929436078
-3.81875,-0.006760889026921283
-3.8175,-0.006425966124406489
-3.81625,-0.005421197416862104
-3.815,-0.004416428709317719
-3.81375,-0.003411660001773335
-3.8125,-0.002071968391714156
-3.81125,0.0006074148284042027
-3.81,0.00462648965858174
-3.80875,0.009315410293788868
-3.8075,0.01467417673402558
-3.80625,0.0203678660767771
-3.805,0.02606155541952861
-3.80375,0.03108539895725053
-3.8025,0.03510447378742807
-3.80125,0.03912354861760561
-3.8,0.04314262344778314
-3.79875,0.04783154408299027
-3.7975,0.05285538762071219
-3.79625,0.05821415406094891
-3.795,0.06390784340370043
-3.79375,0.06993645564896672
-3.7925,0.07596506789423305
-3.79125,0.08232860304201414
-3.79,0.08869213818979524
-3.78875,0.09438582753254676
-3.7875,0.09974459397278346
-3.78625,0.1040985917054758
-3.785,0.1077827436331385
-3.78375,0.1104621268532569
-3.7825,0.1114668955608013
-3.78125,0.1107970497557717
-3.78,0.1087875123406829
-3.77875,0.1061081291205646
-3.7775,0.1044335146079906
-3.77625,0.1034287459004462
-3.775,0.1024239771929018
-3.77375,0.1000795168752983
-3.7725,0.09639536494763551
-3.77125,0.09237629011745799
-3.77,0.08936198399482484
-3.76875,0.08768736948225087
-3.7675,0.08835721528728044
-3.76625,0.09070167560488401
-3.765,0.09405090463003196
-3.76375,0.09873982526523908
-3.7625,0.1040985917054758
-3.76125,0.1084525894381681
-3.76,0.1118018184633161
-3.75875,0.1134764329758901
-3.7575,0.1141462787809197
-3.75625,0.1144812016834344
-3.755,0.1138113558784049
-3.75375,0.1124716642683457
-3.7525,0.1104621268532569
-3.75125,0.1074478207306238
-3.75,0.1030938229979314
-3.74875,0.09706521075266511
-3.7475,0.08969690689733961
-3.74625,0.08132383433446974
-3.745,0.07328568467411467
-3.74375,0.0652475350137596
-3.7425,0.05821415406094891
-3.74125,0.05084585020562343
-3.74,0.04247277764275355
-3.73875,0.03409970507988368
-3.7375,0.02505678671198422
-3.73625,0.01634879124659956
-3.735,0.009650333196303663
-3.73375,0.004291566756066945
-3.7325,-0.0007322767816549766
-3.73125,-0.005421197416862104
-3.73,-0.01044504095458403
-3.72875,-0.01613873029733554
-3.7275,-0.02216734254260185
-3.72625,-0.02752610898283856
-3.725,-0.03288487542307528
-3.72375,-0.03824364186331199
-3.7225,-0.04326748540103392
-3.72125,-0.04896117474378543
-3.72,-0.05565963279408132
-3.71875,-0.06436762825946599
-3.7175,-0.07475023823742463
-3.71625,-0.08613761692292765
-3.715,-0.09752499560843067
-3.71375,-0.1089123742939337
-3.7125,-0.1179552926618332
-3.71125,-0.1249886736146439
-3.71,-0.129677594249851
-3.70875,-0.1323569774699694
-3.7075,-0.1333617461775137
-3.70625,-0.1320220545674546
-3.705,-0.1300125171523658
-3.70375,-0.1276680568347622
-3.7025,-0.1269982110297326
-3.70125,-0.128002979737277
-3.7,-0.1303474400548806
-3.69875,-0.1343665148850581
-3.6975,-0.1383855897152357
-3.69625,-0.1417348187403836
-3.695,-0.1437443561554724
-3.69375,-0.1444142019605019
-3.6925,-0.1447491248630167
-3.69125,-0.1450840477655315
-3.69,-0.1447491248630167
-3.68875,-0.1430745103504428
-3.6875,-0.1403951271303244
-3.68625,-0.1373808210076913
-3.685,-0.1347014377875729
-3.68375,-0.1323569774699694
-3.6825,-0.1316871316649398
-3.68125,-0.1323569774699694
-3.68,-0.1347014377875729
-3.67875,-0.1380506668127209
-3.6775,-0.1413998958378688
-3.67625,-0.1437443561554724
-3.675,-0.1450840477655315
-3.67375,-0.1450840477655315
-3.6725,-0.1447491248630167
-3.67125,-0.1444142019605019
-3.67,-0.1450840477655315
-3.66875,-0.1467586622781055
-3.6675,-0.1491031225957091
-3.66625,-0.1514475829133126
-3.665,-0.1534571203284014
-3.66375,-0.154126966133431
-3.6625,-0.1534571203284014
-3.66125,-0.1511126600107978
-3.66,-0.1477634309856499
-3.65875,-0.1440792790579871
-3.6575,-0.1403951271303244
-3.65625,-0.1373808210076913
-3.655,-0.1357062064951173
-3.65375,-0.1360411293976321
-3.6525,-0.1377157439102061
-3.65125,-0.1403951271303244
-3.65,-0.142739587447928
-3.64875,-0.1440792790579871
-3.6475,-0.1444142019605019
-3.64625,-0.1434094332529576
-3.645,-0.1407300500328392
-3.64375,-0.1373808210076913
-3.6425,-0.1323569774699694
-3.64125,-0.126328365224703
-3.64,-0.1192949842718923
-3.63875,-0.113266372026626
-3.6375,-0.1075726826838745
-3.63625,-0.1038885307562118
-3.635,-0.1012091475360934
-3.63375,-0.09919961012100464
-3.6325,-0.09852976431597507
-3.63125,-0.09919961012100464
-3.63,-0.1012091475360934
-3.62875,-0.1038885307562118
-3.6275,-0.1065679139763301
-3.62625,-0.1079076055863893
-3.625,-0.1089123742939337
-3.62375,-0.1085774513914189
-3.6225,-0.1055631452687857
-3.62125,-0.1005393017310638
-3.62,-0.09451068948579752
-3.61875,-0.08814715433801643
-3.6175,-0.08144869628772053
-3.61625,-0.07542008404245421
-3.615,-0.07173593211479148
-3.61375,-0.07073116340724708
-3.6125,-0.07173593211479148
-3.61125,-0.07441531533490983
-3.61,-0.07742962145754298
-3.60875,-0.08077885048269093
-3.6075,-0.08412807950783888
-3.60625,-0.08714238563047202
-3.605,-0.088817000143046
-3.60375,-0.0898217688505904
-3.6025,-0.0898217688505904
-3.60125,-0.088817000143046
-3.6,-0.08781223143550163
-3.59875,-0.08680746272795725
-3.5975,-0.08613761692292765
-3.59625,-0.08479792531286848
-3.595,-0.0827883878977797
-3.59375,-0.08077885048269093
-3.5925,-0.07876931306760215
-3.59125,-0.07776454436005778
-3.59,-0.07742962145754298
-3.58875,-0.07776454436005778
-3.5875,-0.07910423597011695
-3.58625,-0.08111377338520573
-3.585,-0.08379315660532408
-3.58375,-0.08714238563047202
-3.5825,-0.09116146046064957
-3.58125,-0.0955154581933419
-3.58,-0.09886468721848984
-3.57875,-0.101878993341123
-3.5775,-0.1038885307562118
-3.57625,-0.105228222366271
-3.575,-0.1048932994637562
-3.57375,-0.1042234536587266
-3.5725,-0.1032186849511822
-3.57125,-0.1015440704386082
-3.57,-0.09886468721848984
-3.56875,-0.0965202269008863
-3.5675,-0.09484561238831232
-3.56625,-0.09384084368076792
-3.565,-0.09417576658328272
-3.56375,-0.0955154581933419
-3.5625,-0.0965202269008863
-3.56125,-0.0961853039983715
-3.56,-0.09350592077825315
-3.55875,-0.088817000143046
-3.5575,-0.0834582337028093
-3.55625,-0.07843439016508738
-3.555,-0.07441531533490983
-3.55375,-0.07106608630976188
-3.5525,-0.06805178018712874
-3.55125,-0.06503747406449559
-3.55,-0.06336285955192161
-3.54875,-0.06302793664940681
-3.5475,-0.06369778245443641
-3.54625,-0.06537239696701039
-3.545,-0.06771685728461393
-3.54375,-0.07106608630976188
-3.5425,-0.07475023823742463
-3.54125,-0.07843439016508738
-3.54,-0.0821185420927501
-3.53875,-0.08513284821538328
-3.5375,-0.08647253982544245
-3.53625,-0.08613761692292765
-3.535,-0.08479792531286848
-3.53375,-0.0824534649952649
-3.5325,-0.07876931306760215
-3.53125,-0.07475023823742463
-3.53,-0.07140100921227668
-3.52875,-0.06838670308964354
-3.5275,-0.06604224277203996
-3.52625,-0.06436762825946599
-3.525,-0.06470255116198079
-3.52375,-0.06570731986952516
-3.5225,-0.06738193438209913
-3.52125,-0.06939147179718791
-3.52,-0.07073116340724708
-3.51875,-0.07173593211479148
-3.5175,-0.07274070082233586
-3.51625,-0.07341054662736546
-3.515,-0.07307562372485066
-3.51375,-0.07173593211479148
-3.5125,-0.07006131760221751
-3.51125,-0.06939147179718791
-3.51,-0.06872162599215834
-3.50875,-0.06838670308964354
-3.5075,-0.06838670308964354
-3.50625,-0.06872162599215834
-3.505,-0.06939147179718791
-3.50375,-0.06939147179718791
-3.5025,-0.06972639469970271
-3.50125,-0.07073116340724708
-3.5,-0.07240577791982106
-3.49875,-0.07508516113993943
-3.4975,-0.07776454436005778
-3.49625,-0.08044392758017613
-3.495,-0.0821185420927501
-3.49375,-0.0827883878977797
-3.4925,-0.08178361919023533
-3.49125,-0.07910423597011695
-3.49,-0.07675977565251341
-3.48875,-0.07408039243239503
-3.4875,-0.07207085501730626
-3.48625,-0.07140100921227668
-3.485,-0.07240577791982106
-3.48375,-0.07408039243239503
-3.4825,-0.07575500694496901
-3.48125,-0.07575500694496901
-3.48,-0.07508516113993943
-3.47875,-0.07307562372485066
-3.4775,-0.07039624050473231
-3.47625,-0.06805178018712874
-3.475,-0.06637716567455476
-3.47375,-0.06671208857706956
-3.4725,-0.06872162599215834
-3.47125,-0.07207085501730626
-3.47,-0.07675977565251341
-3.46875,-0.08178361919023533
-3.4675,-0.08647253982544245
-3.46625,-0.0901566917531052
-3.465,-0.09317099787573835
-3.46375,-0.09451068948579752
-3.4625,-0.09317099787573835
-3.46125,-0.0901566917531052
-3.46,-0.08546777111789805
-3.45875,-0.07977408177514655
-3.4575,-0.07307562372485066
-3.45625,-0.06704701147958436
-3.455,-0.06168824503934763
-3.45375,-0.05666440150162571
-3.4525,-0.05298024957396297
-3.45125,-0.0509707121588742
-3.45,-0.04929609764630023
-3.44875,-0.04896117474378543
-3.4475,-0.04896117474378543
-3.44625,-0.04963102054881502
-3.445,-0.0506357892563594
-3.44375,-0.05164055796390379
-3.4425,-0.05331517247647776
-3.44125,-0.05465486408653694
-3.44,-0.05599455569659612
-3.43875,-0.05632947859911092
-3.4375,-0.05632947859911092
-3.43625,-0.05632947859911092
-3.435,-0.05666440150162571
-3.43375,-0.0576691702091701
-3.4325,-0.05867393891671448
-3.43125,-0.06034855342928845
-3.43,-0.06235809084437722
-3.42875,-0.06503747406449559
-3.4275,-0.06771685728461393
-3.42625,-0.06972639469970271
-3.425,-0.07073116340724708
-3.42375,-0.07073116340724708
-3.4225,-0.06939147179718791
-3.42125,-0.06771685728461393
-3.42,-0.06570731986952516
-3.41875,-0.06369778245443641
-3.4175,-0.06302793664940681
-3.41625,-0.06369778245443641
-3.415,-0.06570731986952516
-3.41375,-0.06838670308964354
-3.4125,-0.07106608630976188
-3.41125,-0.07274070082233586
-3.41,-0.07408039243239503
-3.40875,-0.07542008404245421
-3.4075,-0.07642485274999861
-3.40625,-0.07776454436005778
-3.405,-0.07876931306760215
-3.40375,-0.07943915887263175
-3.4025,-0.08044392758017613
-3.40125,-0.08111377338520573
-3.4,-0.0821185420927501
-3.39875,-0.0834582337028093
-3.3975,-0.08613761692292765
-3.39625,-0.08848207724053123
-3.395,-0.0891519230455608
-3.39375,-0.08814715433801643
-3.3925,-0.08580269402041285
-3.39125,-0.08178361919023533
-3.39,-0.07608992984748381
-3.38875,-0.07039624050473231
-3.3875,-0.06537239696701039
-3.38625,-0.06135332213683284
-3.385,-0.05900886181922927
-3.38375,-0.05833901601419968
-3.3825,-0.05867393891671448
-3.38125,-0.05900886181922927
-3.38,-0.05800409311168489
-3.37875,-0.05599455569659612
-3.3775,-0.05331517247647776
-3.37625,-0.04996594345132981
-3.375,-0.04661671442618186
-3.37375,-0.04360240830354871
-3.3725,-0.04125794798594515
-3.37125,-0.03991825637588597
-3.37,-0.03991825637588597
-3.36875,-0.04092302508343035
-3.3675,-0.04192779379097474
-3.36625,-0.04226271669348954
-3.365,-0.04125794798594515
-3.36375,-0.03958333347337117
-3.3625,-0.03824364186331199
-3.36125,-0.03690395025325281
-3.36,-0.03556425864319364
-3.35875,-0.03455948993564925
-3.3575,-0.03422456703313446
-3.35625,-0.03455948993564925
-3.355,-0.03489441283816404
-3.35375,-0.03556425864319364
-3.3525,-0.03656902735073802
-3.35125,-0.03757379605828241
-3.35,-0.0379087189607972
-3.34875,-0.03723887315576761
-3.3475,-0.03589918154570843
-3.34625,-0.03422456703313446
-3.345,-0.03221502961804569
-3.34375,-0.03054041510547172
-3.3425,-0.02886580059289774
-3.34125,-0.02786103188535335
-3.34,-0.02685626317780897
-3.33875,-0.02618641737277938
-3.3375,-0.02618641737277938
-3.33625,-0.02685626317780897
-3.335,-0.02886580059289774
-3.33375,-0.03087533800798651
-3.3325,-0.03254995252056048
-3.33125,-0.03388964413061966
-3.33,-0.03489441283816404
-3.32875,-0.03757379605828241
-3.3275,-0.04058810218091556
-3.32625,-0.04393733120606351
-3.325,-0.04561194571863748
-3.32375,-0.0446071770110931
-3.3225,-0.04058810218091556
-3.32125,-0.03489441283816404
-3.32,-0.02953564639792733
-3.31875,-0.02451180286020541
-3.3175,-0.02049272803002787
-3.31625,-0.01814826771242431
-3.315,-0.01747842190739472
-3.31375,-0.01915303641996869
-3.3125,-0.02250226544511664
-3.31125,-0.02752610898283856
-3.31,-0.03388964413061966
-3.30875,-0.04092302508343035
-3.3075,-0.04728656023121146
-3.30625,-0.05331517247647776
-3.305,-0.05833901601419968
-3.30375,-0.06269301374689201
-3.3025,-0.06570731986952516
-3.30125,-0.06805178018712874
-3.3,-0.06905654889467311
-3.29875,-0.06939147179718791
-3.2975,-0.06972639469970271
-3.29625,-0.06972639469970271
-3.295,-0.06905654889467311
-3.29375,-0.06771685728461393
-3.2925,-0.06604224277203996
-3.29125,-0.06570731986952516
-3.29,-0.06671208857706956
-3.28875,-0.06905654889467311
-3.2875,-0.07207085501730626
-3.28625,-0.07508516113993943
-3.285,-0.07843439016508738
-3.28375,-0.0827883878977797
-3.2825,-0.08714238563047202
-3.28125,-0.09149638336316437
-3.28,-0.09484561238831232
-3.27875,-0.09752499560843067
-3.2775,-0.100204378828549
-3.27625,-0.1025488391461526
-3.275,-0.1025488391461526
-3.27375,-0.09953453302351944
-3.2725,-0.09451068948579752
-3.27125,-0.08781223143550163
-3.27,-0.07977408177514655
-3.26875,-0.07274070082233586
-3.2675,-0.06771685728461393
-3.26625,-0.06436762825946599
-3.265,-0.06336285955192161
-3.26375,-0.06336285955192161
-3.2625,-0.06470255116198079
-3.26125,-0.06704701147958436
-3.26,-0.06972639469970271
-3.25875,-0.07274070082233586
-3.2575,-0.07608992984748381
-3.25625,-0.07876931306760215
-3.255,-0.08144869628772053
-3.25375,-0.08412807950783888
-3.2525,-0.08613761692292765
-3.25125,-0.08714238563047202
-3.25,-0.08647253982544245
-3.24875,-0.08446300241035368
-3.2475,-0.08111377338520573
-3.24625,-0.07642485274999861
-3.245,-0.07039624050473231
-3.24375,-0.06369778245443641
-3.2425,-0.05666440150162571
-3.24125,-0.05130563506138899
-3.24,-0.04695163732869666
-3.23875,-0.04360240830354871
-3.2375,-0.04025317927840076
-3.23625,-0.03522933574067885
-3.235,-0.02886580059289774
-3.23375,-0.02015780512751307
-3.2325,-0.009775195149554437
-3.23125,0.003621720951037356
-3.23,0.02103771188180669
-3.22875,0.04448231505784232
-3.2275,0.07295076177159987
-3.22625,0.1044335146079906
-3.225,0.1375908819569553
-3.22375,0.1714180951109495
-3.2225,0.2032357708498551
-3.22125,0.2323740633686422
-3.22,0.257158358154737
-3.21875,0.2775886552081395
-3.2175,0.2943348003338793
-3.21625,0.3090714080445302
-3.215,0.3217984783400924
-3.21375,0.3335207799281102
-3.2125,0.3442383128085837
-3.21125,0.3529463082739683
-3.21,0.3579701518116902
-3.20875,0.3576352289091755
-3.2075,0.3492621563463056
-3.20625,0.332181088318051
-3.205,0.3084015622395006
-3.20375,0.2789283468181987
-3.2025,0.2461059023717488
-3.20125,0.2116088434127249
-3.2,0.1767768615511863
-3.19875,0.142949648397192
-3.1975,0.1118018184633161
-3.19625,0.08299844884704372
-3.195,0.05687446245088973
-3.19375,0.0330949363723393
-3.1925,0.01132494770887764
-3.19125,-0.007765657734465668
-3.19,-0.02451180286020541
-3.18875,-0.03958333347337117
-3.1875,-0.05298024957396297
-3.18625,-0.06436762825946599
-3.185,-0.07408039243239503
-3.18375,-0.0821185420927501
-3.1825,-0.0891519230455608
-3.18125,-0.0955154581933419
-3.18,-0.1022139162436378
-3.17875,-0.1099171430014781
-3.1775,-0.1176203697593184
-3.17625,-0.1233140591020699
-3.175,-0.1273331339322474
-3.17375,-0.1293426713473362
-3.1725,-0.1303474400548806
-3.17125,-0.1303474400548806
-3.17,-0.1300125171523658
-3.16875,-0.129677594249851
-3.1675,-0.1290077484448214
-3.16625,-0.1283379026397918
-3.165,-0.128002979737277
-3.16375,-0.1273331339322474
-3.1625,-0.126328365224703
-3.16125,-0.1256585194196735
-3.16,-0.1256585194196735
-3.15875,-0.1269982110297326
-3.1575,-0.1290077484448214
-3.15625,-0.1310172858599102
-3.155,-0.1326919003724841
-3.15375,-0.1350363606900877
-3.1525,-0.1373808210076913
-3.15125,-0.1380506668127209
-3.15,-0.1370458981051765
-3.14875,-0.1336966690800285
-3.1475,-0.129677594249851
-3.14625,-0.1266632881272178
-3.145,-0.1239839049070995
-3.14375,-0.1209695987844663
-3.1425,-0.1176203697593184
-3.14125,-0.113266372026626
-3.14,-0.1089123742939337
-3.13875,-0.1048932994637562
-3.1375,-0.1008742246335786
-3.13625,-0.0965202269008863
-3.135,-0.09250115207070875
-3.13375,-0.0891519230455608
-3.1325,-0.08714238563047202
-3.13125,-0.08647253982544245
-3.13,-0.08613761692292765
-3.12875,-0.08613761692292765
-3.1275,-0.08647253982544245
-3.12625,-0.08647253982544245
-3.125,-0.08613761692292765
-3.12375,-0.08580269402041285
-3.1225,-0.08580269402041285
-3.12125,-0.08680746272795725
-3.12,-0.0891519230455608
-3.11875,-0.09250115207070875
-3.1175,-0.0965202269008863
-3.11625,-0.1005393017310638
-3.115,-0.1055631452687857
-3.11375,-0.1099171430014781
-3.1125,-0.1136012949291408
-3.11125,-0.1156108323442296
-3.11,-0.1152759094417148
-3.10875,-0.1142711407341704
-3.1075,-0.1129314491241112
-3.10625,-0.1112568346115373
-3.105,-0.1079076055863893
-3.10375,-0.1032186849511822
-3.1025,-0.09785991851094547
-3.10125,-0.09317099787573835
-3.1,-0.0894868459480756
-3.09875,-0.08814715433801643
-3.0975,-0.088817000143046
-3.09625,-0.0894868459480756
-3.095,-0.0894868459480756
-3.09375,-0.08814715433801643
-3.0925,-0.08513284821538328
-3.09125,-0.08044392758017613
-3.09,-0.07542008404245421
-3.08875,-0.07073116340724708
-3.0875,-0.06738193438209913
-3.08625,-0.06436762825946599
-3.085,-0.06202316794186243
-3.08375,-0.06068347633180324
-3.0825,-0.05967870762425886
-3.08125,-0.05800409311168489
-3.08,-0.05599455569659612
-3.07875,-0.05365009537899255
-3.0775,-0.05130563506138899
-3.07625,-0.04963102054881502
-3.075,-0.04862625184127063
-3.07375,-0.04862625184127063
-3.0725,-0.04896117474378543
-3.07125,-0.04929609764630023
-3.07,-0.04996594345132981
-3.06875,-0.05130563506138899
-3.0675,-0.05264532667144817
-3.06625,-0.05398501828150735
-3.065,-0.05465486408653694
-3.06375,-0.05465486408653694
-3.0625,-0.05365009537899255
-3.06125,-0.05197548086641858
-3.06,-0.04929609764630023
-3.05875,-0.04628179152366707
-3.0575,-0.04360240830354871
-3.05625,-0.04092302508343035
-3.055,-0.0379087189607972
-3.05375,-0.03556425864319364
-3.0525,-0.03355472122810487
-3.05125,-0.03254995252056048
-3.05,-0.0315451838130161
-3.04875,-0.03020549220295692
-3.0475,-0.02953564639792733
-3.04625,-0.02987056930044213
-3.045,-0.0312102609105013
-3.04375,-0.03254995252056048
-3.0425,-0.03355472122810487
-3.04125,-0.03422456703313446
-3.04,-0.03455948993564925
-3.03875,-0.03522933574067885
-3.0375,-0.03690395025325281
-3.03625,-0.03857856476582679
-3.035,-0.04058810218091556
-3.03375,-0.04125794798594515
-3.0325,-0.04092302508343035
-3.03125,-0.03958333347337117
-3.03,-0.03623410444822323
-3.02875,-0.03054041510547172
-3.0275,-0.02216734254260185
-3.02625,-0.01245457836967279
-3.025,-0.002741814196743745
-3.02375,0.006636027073670509
-3.0225,0.01433925383151079
-3.02125,0.02070278897929189
-3.02,0.02572663251701381
-3.01875,0.02874093863964697
-3.0175,0.02974570734719135
-3.01625,0.02941078444467655
-3.015,0.02807109283461738
-3.01375,0.02572663251701381
-3.0125,0.02371709510192505
-3.01125,0.02304724929689545
-3.01,0.02371709510192505
-3.00875,0.02505678671198422
-3.0075,0.02773616993210258
-3.00625,0.03209016766479492
-3.005,0.03778385700754643
-3.00375,0.04481723796035712
-3.0025,0.0521855418156826
-3.00125,0.0585490769634637
-3,0.06357292050118563
-2.99875,0.06692214952633357
-2.9975,0.06926660984393715
-2.99625,0.0716110701615407
-2.995,0.07395553047914427
-2.99375,0.07596506789423305
-2.9925,0.07730475950429222
-2.99125,0.07696983660177742
-2.99,0.07596506789423305
-2.98875,0.07496029918668864
-2.9875,0.07496029918668864
-2.98625,0.07529522208920345
-2.985,0.07696983660177742
-2.98375,0.07964921982189577
-2.9825,0.08366829465207332
-2.98125,0.08835721528728044
-2.98,0.09237629011745799
-2.97875,0.09572551914260594
-2.9775,0.09907474816775388
-2.97625,0.102089054290387
-2.975,0.1040985917054758
-2.97375,0.1057732062180498
-2.9725,0.107112897828109
-2.97125,0.1081176665356533
-2.97,0.1077827436331385
-2.96875,0.1061081291205646
-2.9675,0.1034287459004462
-2.96625,0.09940967107026868
-2.965,0.09438582753254676
-2.96375,0.08835721528728044
-2.9625,0.08299844884704372
-2.96125,0.08065398852944017
-2.96,0.08098891143195497
-2.95875,0.08333337174955852
-2.9575,0.08634767787219166
-2.95625,0.08902706109231004
-2.955,0.09103659850739881
-2.95375,0.09204136721494319
-2.9525,0.09137152140991359
-2.95125,0.08869213818979524
-2.95,0.08366829465207332
-2.94875,0.07730475950429222
-2.9475,0.07027137855148152
-2.94625,0.06290307469615602
-2.945,0.05653953954837494
-2.94375,0.05151569601065301
-2.9425,0.04682677537544588
-2.94125,0.04180293183772396
-2.94,0.03711401120251684
-2.93875,0.03209016766479492
-2.9375,0.02606155541952861
-2.93625,0.01869325156420312
-2.935,0.009315410293788868
-2.93375,-0.002406891294228951
-2.9325,-0.01546888449230595
-2.93125,-0.02819595478786815
-2.93,-0.03991825637588597
-2.92875,-0.04996594345132981
-2.9275,-0.05900886181922927
-2.92625,-0.06771685728461393
-2.925,-0.07542008404245421
-2.92375,-0.0821185420927501
-2.9225,-0.08714238563047202
-2.92125,-0.09149638336316437
-2.92,-0.09484561238831232
-2.91875,-0.09785991851094547
-2.9175,-0.1005393017310638
-2.91625,-0.1042234536587266
-2.915,-0.1085774513914189
-2.91375,-0.113266372026626
-2.9125,-0.1179552926618332
-2.91125,-0.1223092903945255
-2.91,-0.1269982110297326
-2.90875,-0.1320220545674546
-2.9075,-0.1363760523001469
-2.90625,-0.13939035842278
-2.905,-0.1407300500328392
-2.90375,-0.1413998958378688
-2.9025,-0.1424046645454132
-2.90125,-0.1434094332529576
-2.9,-0.1434094332529576
-2.89875,-0.1430745103504428
-2.8975,-0.1430745103504428
-2.89625,-0.1440792790579871
-2.895,-0.1450840477655315
-2.89375,-0.1460888164730759
-2.8925,-0.1474285080831351
-2.89125,-0.1487681996931943
-2.89,-0.1504428142057683
-2.88875,-0.1521174287183422
-2.8875,-0.154126966133431
-2.88625,-0.1561365035485198
-2.885,-0.1574761951585789
-2.88375,-0.1581460409636085
-2.8825,-0.1574761951585789
-2.88125,-0.1561365035485198
-2.88,-0.1537920432309162
-2.87875,-0.1511126600107978
-2.8775,-0.1484332767906795
-2.87625,-0.1460888164730759
-2.875,-0.1437443561554724
-2.87375,-0.1417348187403836
-2.8725,-0.1397252813252948
-2.87125,-0.1387205126177505
-2.87,-0.1383855897152357
-2.86875,-0.1383855897152357
-2.8675,-0.1390554355202653
-2.86625,-0.1400602042278096
-2.865,-0.1417348187403836
-2.86375,-0.1440792790579871
-2.8625,-0.1460888164730759
-2.86125,-0.1477634309856499
-2.86,-0.1477634309856499
-2.85875,-0.1460888164730759
-2.8575,-0.1424046645454132
-2.85625,-0.1367109752026617
-2.855,-0.1306823629573954
-2.85375,-0.1246537507121291
-2.8525,-0.1196299071744071
-2.85125,-0.1152759094417148
-2.85,-0.1112568346115373
-2.84875,-0.1075726826838745
-2.8475,-0.1055631452687857
-2.84625,-0.105228222366271
-2.845,-0.1065679139763301
-2.84375,-0.1082425284889041
-2.8425,-0.1102520659039929
-2.84125,-0.1129314491241112
-2.84,-0.1149409865392
-2.83875,-0.1162806781492592
-2.8375,-0.1169505239542888
-2.83625,-0.1169505239542888
-2.835,-0.116615601051774
-2.83375,-0.1162806781492592
-2.8325,-0.1156108323442296
-2.83125,-0.1139362178316556
-2.83,-0.1119266804165669
-2.82875,-0.1089123742939337
-2.8275,-0.1058980681713005
-2.82625,-0.1025488391461526
-2.825,-0.09886468721848984
-2.82375,-0.0955154581933419
-2.8225,-0.09317099787573835
-2.82125,-0.09283607497322355
-2.82,-0.09417576658328272
-2.81875,-0.0968551498034011
-2.8175,-0.100204378828549
-2.81625,-0.1032186849511822
-2.815,-0.1062329910738153
-2.81375,-0.1072377597813597
-2.8125,-0.1069028368788449
-2.81125,-0.1045583765612414
-2.81,-0.1005393017310638
-2.80875,-0.0961853039983715
-2.8075,-0.09283607497322355
-2.80625,-0.0901566917531052
-2.805,-0.08848207724053123
-2.80375,-0.08680746272795725
-2.8025,-0.08546777111789805
-2.80125,-0.08479792531286848
-2.8,-0.08513284821538328
-2.79875,-0.08680746272795725
-2.7975,-0.0898217688505904
-2.79625,-0.09283607497322355
-2.795,-0.09484561238831232
-2.79375,-0.09518053529082712
-2.7925,-0.09451068948579752
-2.79125,-0.09283607497322355
-2.79,-0.09082653755813477
-2.78875,-0.08814715433801643
-2.7875,-0.08513284821538328
-2.78625,-0.0827883878977797
-2.785,-0.08111377338520573
-2.78375,-0.08111377338520573
-2.7825,-0.08178361919023533
-2.78125,-0.08178361919023533
-2.78,-0.08144869628772053
-2.77875,-0.08077885048269093
-2.7775,-0.07977408177514655
-2.77625,-0.07843439016508738
-2.775,-0.07776454436005778
-2.77375,-0.07742962145754298
-2.7725,-0.07709469855502818
-2.77125,-0.07642485274999861
-2.77,-0.07575500694496901
-2.76875,-0.07542008404245421
-2.7675,-0.07542008404245421
-2.76625,-0.07508516113993943
-2.765,-0.07475023823742463
-2.76375,-0.07441531533490983
-2.7625,-0.07441531533490983
-2.76125,-0.07475023823742463
-2.76,-0.07575500694496901
-2.75875,-0.07675977565251341
-2.7575,-0.07742962145754298
-2.75625,-0.07876931306760215
-2.755,-0.08111377338520573
-2.75375,-0.0831233108002945
-2.7525,-0.08513284821538328
-2.75125,-0.08680746272795725
-2.75,-0.08848207724053123
-2.74875,-0.0891519230455608
-2.7475,-0.088817000143046
-2.74625,-0.08814715433801643
-2.745,-0.08714238563047202
-2.74375,-0.08613761692292765
-2.7425,-0.08513284821538328
-2.74125,-0.08479792531286848
-2.74,-0.08546777111789805
-2.73875,-0.08613761692292765
-2.7375,-0.08680746272795725
-2.73625,-0.08680746272795725
-2.735,-0.08613761692292765
-2.73375,-0.08446300241035368
-2.7325,-0.08178361919023533
-2.73125,-0.07809946726257258
-2.73,-0.07508516113993943
-2.72875,-0.07274070082233586
-2.7275,-0.07106608630976188
-2.72625,-0.06939147179718791
-2.725,-0.06738193438209913
-2.72375,-0.06570731986952516
-2.7225,-0.06470255116198079
-2.72125,-0.06537239696701039
-2.72,-0.06805178018712874
-2.71875,-0.07240577791982106
-2.7175,-0.07709469855502818
-2.71625,-0.08044392758017613
-2.715,-0.08178361919023533
-2.71375,-0.08111377338520573
-2.7125,-0.07809946726257258
-2.71125,-0.07508516113993943
-2.71,-0.07140100921227668
-2.70875,-0.06905654889467311
-2.7075,-0.06771685728461393
-2.70625,-0.06838670308964354
-2.705,-0.07039624050473231
-2.70375,-0.07408039243239503
-2.7025,-0.07843439016508738
-2.70125,-0.0834582337028093
-2.7,-0.088817000143046
-2.69875,-0.09384084368076792
-2.6975,-0.09719007270591587
-2.69625,-0.09886468721848984
-2.695,-0.09785991851094547
-2.69375,-0.09417576658328272
-2.6925,-0.08848207724053123
-2.69125,-0.08144869628772053
-2.69,-0.07475023823742463
-2.68875,-0.06872162599215834
-2.6875,-0.06369778245443641
-2.68625,-0.06001363052677366
-2.685,-0.0576691702091701
-2.68375,-0.05666440150162571
-2.6825,-0.0573342473066553
-2.68125,-0.05900886181922927
-2.68,-0.06068347633180324
-2.67875,-0.06302793664940681
-2.6775,-0.06570731986952516
-2.67625,-0.06838670308964354
-2.675,-0.07140100921227668
-2.67375,-0.07508516113993943
-2.6725,-0.07776454436005778
-2.67125,-0.07876931306760215
-2.67,-0.07843439016508738
-2.66875,-0.07709469855502818
-2.6675,-0.07475023823742463
-2.66625,-0.07207085501730626
-2.665,-0.06939147179718791
-2.66375,-0.06738193438209913
-2.6625,-0.06671208857706956
-2.66125,-0.06704701147958436
-2.66,-0.06771685728461393
-2.65875,-0.06872162599215834
-2.6575,-0.06905654889467311
-2.65625,-0.06872162599215834
-2.655,-0.06671208857706956
-2.65375,-0.06570731986952516
-2.6525,-0.06570731986952516
-2.65125,-0.06704701147958436
-2.65,-0.06972639469970271
-2.64875,-0.07240577791982106
-2.6475,-0.07441531533490983
-2.64625,-0.07475023823742463
-2.645,-0.07408039243239503
-2.64375,-0.07207085501730626
-2.6425,-0.06939147179718791
-2.64125,-0.06738193438209913
-2.64,-0.06604224277203996
-2.63875,-0.06537239696701039
-2.6375,-0.06503747406449559
-2.63625,-0.06537239696701039
-2.635,-0.06537239696701039
-2.63375,-0.06503747406449559
-2.6325,-0.06537239696701039
-2.63125,-0.06704701147958436
-2.63,-0.06972639469970271
-2.62875,-0.07274070082233586
-2.6275,-0.07508516113993943
-2.62625,-0.07675977565251341
-2.625,-0.07608992984748381
-2.62375,-0.07341054662736546
-2.6225,-0.06905654889467311
-2.62125,-0.06369778245443641
-2.62,-0.05900886181922927
-2.61875,-0.05532470989156653
-2.6175,-0.05264532667144817
-2.61625,-0.0506357892563594
-2.615,-0.04896117474378543
-2.61375,-0.04896117474378543
-2.6125,-0.04996594345132981
-2.61125,-0.05130563506138899
-2.61,-0.05197548086641858
-2.60875,-0.05164055796390379
-2.6075,-0.04996594345132981
-2.60625,-0.04762148313372625
-2.605,-0.04561194571863748
-2.60375,-0.04393733120606351
-2.6025,-0.04226271669348954
-2.60125,-0.04058810218091556
-2.6,-0.03924841057085638
-2.59875,-0.03824364186331199
-2.5975,-0.0379087189607972
-2.59625,-0.03824364186331199
-2.595,-0.03857856476582679
-2.59375,-0.03891348766834159
-2.5925,-0.03991825637588597
-2.59125,-0.04092302508343035
-2.59,-0.04293256249851912
-2.58875,-0.04527702281612268
-2.5875,-0.04728656023121146
-2.58625,-0.04929609764630023
-2.585,-0.05164055796390379
-2.58375,-0.05398501828150735
-2.5825,-0.05532470989156653
-2.58125,-0.05599455569659612
-2.58,-0.05498978698905174
-2.57875,-0.05331517247647776
-2.5775,-0.0509707121588742
-2.57625,-0.04795640603624104
-2.575,-0.0446071770110931
-2.57375,-0.04092302508343035
-2.5725,-0.03690395025325281
-2.57125,-0.03254995252056048
-2.57,-0.02819595478786815
-2.56875,-0.02350703415266102
-2.5675,-0.01982288222499828
-2.56625,-0.01781334480990951
-2.565,-0.01680857610236513
-2.56375,-0.01714349900487992
-2.5625,-0.01814826771242431
-2.56125,-0.02015780512751307
-2.56,-0.02283718834763144
-2.55875,-0.0248467257627202
-2.5575,-0.02585149447026459
-2.55625,-0.02618641737277938
-2.555,-0.0265213402752941
-2.55375,-0.02752610898283856
-2.5525,-0.02786103188535328
-2.55125,-0.02685626317780897
-2.55,-0.02484672576271967
-2.54875,-0.02250226544511664
-2.5475,-0.02082765093254266
-2.54625,-0.01982288222499828
-2.545,-0.01915303641996869
-2.54375,-0.01781334480990982
-2.5425,-0.01647365319985033
-2.54125,-0.01479903868727621
-2.54,-0.01412919288224677
-2.53875,-0.01580380739482173
-2.5375,-0.02015780512751307
-2.53625,-0.02652134027529418
-2.535,-0.03422456703313446
-2.53375,-0.04125794798594515
-2.5325,-0.04728656023121008
-2.53125,-0.05264532667144817
-2.53,-0.05699932440414157
-2.52875,-0.06168824503934763
-2.5275,-0.06570731986952516
-2.52625,-0.06872162599215834
-2.525,-0.07006131760221751
-2.52375,-0.07073116340724693
-2.5225,-0.07106608630976188
-2.52125,-0.07173593211479133
-2.52,-0.07207085501730626
-2.51875,-0.07240577791982121
-2.5175,-0.07307562372485066
-2.51625,-0.07408039243239503
-2.515,-0.07542008404245421
-2.51375,-0.07642485274999861
-2.5125,-0.07709469855502803
-2.51125,-0.07709469855502818
-2.51,-0.07709469855502825
-2.50875,-0.07742962145754298
-2.5075,-0.07843439016508776
-2.50625,-0.08010900467766136
-2.505,-0.0824534649952649
-2.50375,-0.08647253982544245
-2.5025,-0.09149638336316437
-2.50125,-0.09652022690088516
-2.5,-0.09986945592603425
-2.49875,-0.1008742246335784
-2.4975,-0.09986945592603425
-2.49625,-0.09752499560843067
-2.495,-0.09518053529082712
-2.49375,-0.09317099787573835
-2.4925,-0.09149638336316475
-2.49125,-0.09082653755813477
-2.49,-0.09049161465562004
-2.48875,-0.09082653755813477
-2.4875,-0.09216622916819432
-2.48625,-0.09384084368076792
-2.485,-0.09518053529082712
-2.48375,-0.0961853039983715
-2.4825,-0.0958503810958567
-2.48125,-0.09518053529082728
-2.48,-0.09317099787573835
-2.47875,-0.09082653755813394
-2.4775,-0.08714238563047202
-2.47625,-0.08178361919023396
-2.475,-0.07575500694496901
-2.47375,-0.06972639469970271
-2.4725,-0.06336285955192161
-2.47125,-0.0576691702091701
-2.47,-0.05331517247647875
-2.46875,-0.04996594345132981
-2.4675,-0.04695163732869605
-2.46625,-0.0442722541085783
-2.465,-0.03991825637588597
-2.46375,-0.03321979832559007
-2.4625,-0.0248467257627202
-2.46125,-0.01446411578476393
-2.46,-0.002406891294228951
-2.45875,0.01266463931893339
-2.4575,0.03242509056730971
-2.45625,0.05754430825592595
-2.455,0.08668260077470646
-2.45375,0.118500276513612
-2.4525,0.1509877980575471
-2.45125,0.1814657821863934
-2.45,0.2089294601926003
-2.44875,0.232708986271157
-2.4475,0.2544789749346232
-2.44625,0.2745743490855064
-2.445,0.2939998774313684
-2.44375,0.3114158683621338
-2.4425,0.3264873989752995
-2.44125,0.3382097005633173
-2.44,0.3439033899060689
-2.43875,0.3435684670035541
-2.4375,0.3365350860507434
-2.43625,0.322468324145122
-2.435,0.3010332583841752
-2.43375,0.2739045032804768
-2.4325,0.2427566733466008
-2.43125,0.2089294601926066
-2.43,0.1734276325260383
-2.42875,0.1382607277619849
-2.4275,0.1047684375105054
-2.42625,0.07496029918668864
-2.425,0.04850138988801986
-2.42375,0.02606155541952861
-2.4225,0.006636027073670509
-2.42125,-0.01044504095458403
-2.42,-0.0248467257627202
-2.41875,-0.03757379605828241
-2.4175,-0.04896117474378543
-2.41625,-0.05900886181922927
-2.415,-0.06805178018712874
-2.41375,-0.07542008404245421
-2.4125,-0.08111377338520573
-2.41125,-0.08647253982544245
-2.41,-0.09116146046064957
-2.40875,-0.09484561238831232
-2.4075,-0.09785991851094547
-2.40625,-0.1005393017310638
-2.405,-0.1028837620486674
-2.40375,-0.1048932994637562
-2.4025,-0.1062329910738153
-2.40125,-0.1069028368788449
-2.4,-0.1075726826838745
-2.39875,-0.1085774513914189
-2.3975,-0.1102520659039929
-2.39625,-0.1122616033190816
-2.395,-0.1146060636366852
-2.39375,-0.1176203697593184
-2.3925,-0.1202997529794367
-2.39125,-0.1233140591020699
-2.39,-0.1253235965171587
-2.38875,-0.1269982110297326
-2.3875,-0.1290077484448214
-2.38625,-0.1303474400548806
-2.385,-0.1316871316649398
-2.38375,-0.1320220545674546
-2.3825,-0.1316871316649398
-2.38125,-0.1310172858599102
-2.38,-0.1300125171523658
-2.37875,-0.1290077484448214
-2.3775,-0.1273331339322474
-2.37625,-0.1256585194196735
-2.375,-0.1226442132970403
-2.37375,-0.1199648300769219
-2.3725,-0.1179552926618332
-2.37125,-0.116615601051774
-2.37,-0.116615601051774
-2.36875,-0.116615601051774
-2.3675,-0.1172854468568036
-2.36625,-0.1176203697593184
-2.365,-0.1176203697593184
-2.36375,-0.1172854468568036
-2.3625,-0.1156108323442296
-2.36125,-0.113266372026626
-2.36,-0.1099171430014781
-2.35875,-0.1055631452687857
-2.3575,-0.1015440704386082
-2.35625,-0.09752499560843067
-2.355,-0.09417576658328272
-2.35375,-0.09250115207070875
-2.3525,-0.09216622916819395
-2.35125,-0.09384084368076792
-2.35,-0.09719007270591587
-2.34875,-0.1025488391461526
-2.3475,-0.1085774513914189
-2.34625,-0.1142711407341704
-2.345,-0.1186251384668628
-2.34375,-0.1213045216869811
-2.3425,-0.1219743674920107
-2.34125,-0.1196299071744071
-2.34,-0.1159457552467444
-2.33875,-0.1112568346115373
-2.3375,-0.1065679139763301
-2.33625,-0.1022139162436378
-2.335,-0.09785991851094547
-2.33375,-0.09417576658328272
-2.3325,-0.09082653755813477
-2.33125,-0.08848207724053123
-2.33,-0.08714238563047202
-2.32875,-0.08714238563047202
-2.3275,-0.08848207724053123
-2.32625,-0.09049161465561997
-2.325,-0.09283607497322355
-2.32375,-0.09417576658328272
-2.3225,-0.09417576658328272
-2.32125,-0.09317099787573835
-2.32,-0.09149638336316437
-2.31875,-0.0898217688505904
-2.3175,-0.08781223143550163
-2.31625,-0.08580269402041285
-2.315,-0.08412807950783888
-2.31375,-0.0824534649952649
-2.3125,-0.08077885048269093
-2.31125,-0.07910423597011695
-2.31,-0.07809946726257258
-2.30875,-0.07709469855502818
-2.3075,-0.07642485274999861
-2.30625,-0.07508516113993943
-2.305,-0.07307562372485066
-2.30375,-0.07039624050473231
-2.3025,-0.06805178018712874
-2.30125,-0.06637716567455476
-2.3,-0.06470255116198079
-2.29875,-0.06369778245443641
-2.2975,-0.06269301374689201
-2.29625,-0.06168824503934763
-2.295,-0.06001363052677366
-2.29375,-0.05833901601419968
-2.2925,-0.05666440150162571
-2.29125,-0.05465486408653694
-2.29,-0.05331517247647776
-2.28875,-0.05164055796390379
-2.2875,-0.04963102054881502
-2.28625,-0.04762148313372625
-2.285,-0.04494209991360789
-2.28375,-0.04159287088845994
-2.2825,-0.03824364186331199
-2.28125,-0.03522933574067885
-2.28,-0.03221502961804569
-2.27875,-0.03020549220295692
-2.2775,-0.02853087769038294
-2.27625,-0.02719118608032377
-2.275,-0.02551657156774979
-2.27375,-0.02317211125014623
-2.2725,-0.02015780512751307
-2.27125,-0.01680857610236513
-2.27,-0.01245457836967279
-2.26875,-0.008435503539495258
-2.2675,-0.005086274514347309
-2.26625,-0.00307673709925854
-2.265,-0.00307673709925854
-2.26375,-0.004081505806802925
-2.2625,-0.004751351611832514
-2.26125,-0.004416428709317719
-2.26,-0.002741814196743745
-2.25875,-6.243097662538694e-05
-2.2575,0.003621720951037356
-2.25625,0.007305872878700099
-2.255,0.01065510190384805
-2.25375,0.01299956222145161
-2.2525,0.01433925383151079
-2.25125,0.01433925383151079
-2.25,0.0136694080264812
-2.24875,0.01199479351390723
-2.2475,0.01065510190384805
-2.24625,0.01099002480636284
-2.245,0.01266463931893682
-2.24375,0.01567894544156997
-2.2425,0.01902817446671792
-2.24125,0.02237740349186586
-2.24,0.02472186380946943
-2.23875,0.02706632412707299
-2.2375,0.02974570734719135
-2.23625,0.03209016766479492
-2.235,0.03476955088491327
-2.23375,0.03677908830000204
-2.2325,0.03878862571509081
-2.23125,0.04146800893520917
-2.23,0.04448231505784232
-2.22875,0.04783154408299027
-2.2275,0.05118077310813822
-2.22625,0.05419507923077137
-2.225,0.0585490769634637
-2.22375,0.06357292050118563
-2.2225,0.06893168694142235
-2.22125,0.07395553047914427
-2.22,0.07797460530932179
-2.21875,0.08132383433446974
-2.2175,0.08433814045710292
-2.21625,0.08735244657973606
-2.215,0.09036675270236921
-2.21375,0.09271121301997279
-2.2125,0.09472075043506153
-2.21125,0.09606044204512074
-2.21,0.09840490236272428
-2.20875,0.1007493626803279
-2.2075,0.1027589000954166
-2.20625,0.1044335146079906
-2.205,0.1074478207306238
-2.20375,0.1111319726582865
-2.2025,0.1148161245859492
-2.20125,0.118500276513612
-2.2,0.1218495055387599
-2.19875,0.1251987345639079
-2.1975,0.1268733490764818
-2.19625,0.1275431948815114
-2.195,0.1278781177840262
-2.19375,0.1288828864915706
-2.1925,0.129887655199115
-2.19125,0.1305575010041446
-2.19,0.129887655199115
-2.18875,0.1285479635890558
-2.1875,0.1262035032714522
-2.18625,0.1225193513437895
-2.185,0.1181653536110972
-2.18375,0.1118018184633161
-2.1825,0.1044335146079906
-2.18125,0.09639536494763551
-2.18,0.08835721528728044
-2.17875,0.08199368013949934
-2.1775,0.07730475950429222
-2.17625,0.0726158388690851
-2.175,0.06759199533136317
-2.17375,0.06055861437855247
-2.1725,0.05151569601065301
-2.17125,0.04046324022766479
-2.17,0.02773616993210258
-2.16875,0.0136694080264812
-2.1675,-0.0007322767816549766
-2.16625,-0.01446411578476156
-2.165,-0.02652134027529418
-2.16375,-0.03522933574067885
-2.1625,-0.04125794798594515
-2.16125,-0.04494209991360789
-2.16,-0.04728656023121146
-2.15875,-0.04963102054881502
-2.1575,-0.05164055796390379
-2.15625,-0.05365009537899255
-2.155,-0.05532470989156653
-2.15375,-0.05632947859911092
-2.1525,-0.0576691702091701
-2.15125,-0.05967870762425886
-2.15,-0.06302793664940681
-2.14875,-0.06771685728461393
-2.1475,-0.07408039243239503
-2.14625,-0.08178361919023533
-2.145,-0.09183130626567917
-2.14375,-0.1032186849511822
-2.1425,-0.1142711407341704
-2.14125,-0.1233140591020699
-2.14,-0.1303474400548806
-2.13875,-0.1357062064951173
-2.1375,-0.1387205126177505
-2.13625,-0.1403951271303244
-2.135,-0.141064972935354
-2.13375,-0.1417348187403836
-2.1325,-0.1424046645454132
-2.13125,-0.142739587447928
-2.13,-0.1430745103504428
-2.12875,-0.1434094332529576
-2.1275,-0.1434094332529576
-2.12625,-0.1444142019605019
-2.125,-0.1460888164730759
-2.12375,-0.1477634309856499
-2.1225,-0.1487681996931943
-2.12125,-0.1487681996931943
-2.12,-0.1477634309856499
-2.11875,-0.1467586622781055
-2.1175,-0.1464237393755907
-2.11625,-0.1460888164730759
-2.115,-0.1464237393755907
-2.11375,-0.1464237393755907
-2.1125,-0.1454189706680463
-2.11125,-0.1440792790579871
-2.11,-0.142739587447928
-2.10875,-0.141064972935354
-2.1075,-0.1390554355202653
-2.10625,-0.1367109752026617
-2.105,-0.1347014377875729
-2.10375,-0.1340315919825433
-2.1025,-0.1347014377875729
-2.10125,-0.1363760523001469
-2.1,-0.1380506668127209
-2.09875,-0.1400602042278096
-2.0975,-0.1424046645454132
-2.09625,-0.1444142019605019
-2.095,-0.1467586622781055
-2.09375,-0.1484332767906795
-2.0925,-0.1491031225957091
-2.09125,-0.1474285080831351
-2.09,-0.1444142019605019
-2.08875,-0.1407300500328392
-2.0875,-0.1370458981051765
-2.08625,-0.1336966690800285
-2.085,-0.131352208762425
-2.08375,-0.129677594249851
-2.0825,-0.1286728255423066
-2.08125,-0.1276680568347622
-2.08,-0.1276680568347622
-2.07875,-0.1276680568347622
-2.0775,-0.1286728255423066
-2.07625,-0.129677594249851
-2.075,-0.1300125171523658
-2.07375,-0.1303474400548806
-2.0725,-0.1306823629573954
-2.07125,-0.1326919003724841
-2.07,-0.1360411293976321
-2.06875,-0.1377157439102061
-2.0675,-0.1370458981051765
-2.06625,-0.1336966690800285
-2.065,-0.128002979737277
-2.06375,-0.1213045216869811
-2.0625,-0.1146060636366852
-2.06125,-0.1079076055863893
-2.06,-0.101878993341123
-2.05875,-0.0968551498034011
-2.0575,-0.09283607497322355
-2.05625,-0.0894868459480756
-2.055,-0.08680746272795725
-2.05375,-0.08513284821538328
-2.0525,-0.0831233108002945
-2.05125,-0.08111377338520573
-2.05,-0.08044392758017613
-2.04875,-0.08077885048269093
-2.0475,-0.0831233108002945
-2.04625,-0.08613761692292765
-2.045,-0.0901566917531052
-2.04375,-0.09484561238831232
-2.0425,-0.09919961012100464
-2.04125,-0.103553607853697
-2.04,-0.1072377597813597
-2.03875,-0.1095822200989633
-2.0375,-0.1109219117090225
-2.03625,-0.1109219117090225
-2.035,-0.1105869888065077
-2.03375,-0.1095822200989633
-2.0325,-0.1089123742939337
-2.03125,-0.1092472971964485
-2.03,-0.1095822200989633
-2.02875,-0.1095822200989633
-2.0275,-0.1089123742939337
-2.02625,-0.1079076055863893
-2.025,-0.1065679139763301
-2.02375,-0.1045583765612414
-2.0225,-0.1005393017310638
-2.02125,-0.0955154581933419
-2.02,-0.0891519230455608
-2.01875,-0.0821185420927501
-2.0175,-0.07608992984748381
-2.01625,-0.07173593211479148
-2.015,-0.06872162599215834
-2.01375,-0.06704701147958436
-2.0125,-0.06637716567455476
-2.01125,-0.06671208857706956
-2.01,-0.06805178018712874
-2.00875,-0.06972639469970271
-2.0075,-0.07207085501730626
-2.00625,-0.07508516113993943
-2.005,-0.07910423597011695
-2.00375,-0.08412807950783888
-2.0025,-0.08714238563047202
-2.00125,-0.08814715433801643
-2,-0.08747730853298682
-1.99875,-0.08546777111789805
-1.9975,-0.0831233108002945
-1.99625,-0.08111377338520573
-1.995,-0.07943915887263175
-1.99375,-0.07776454436005778
-1.9925,-0.07642485274999861
-1.99125,-0.07542008404245421
-1.99,-0.07475023823742463
-1.98875,-0.07408039243239503
-1.9875,-0.07274070082233586
-1.98625,-0.07039624050473231
-1.985,-0.06771685728461393
-1.98375,-0.06436762825946599
-1.9825,-0.06135332213683284
-1.98125,-0.05867393891671448
-1.98,-0.0573342473066553
-1.97875,-0.0573342473066553
-1.9775,-0.05900886181922927
-1.97625,-0.06168824503934763
-1.975,-0.06470255116198079
-1.97375,-0.06704701147958436
-1.9725,-0.06872162599215834
-1.97125,-0.07006131760221751
-1.97,-0.07173593211479148
-1.96875,-0.07475023823742463
-1.9675,-0.07809946726257258
-1.96625,-0.0821185420927501
-1.965,-0.08580269402041285
-1.96375,-0.088817000143046
-1.9625,-0.09149638336316437
-1.96125,-0.09250115207070875
-1.96,-0.09283607497322355
-1.95875,-0.09250115207070875
-1.9575,-0.09049161465561997
-1.95625,-0.08781223143550163
-1.955,-0.08446300241035368
-1.95375,-0.08044392758017613
-1.9525,-0.07608992984748381
-1.95125,-0.07240577791982106
-1.95,-0.06905654889467311
-1.94875,-0.06738193438209913
-1.9475,-0.06704701147958436
-1.94625,-0.06872162599215834
-1.945,-0.07039624050473231
-1.94375,-0.07207085501730626
-1.9425,-0.07542008404245421
-1.94125,-0.08010900467766136
-1.94,-0.08479792531286848
-1.93875,-0.0891519230455608
-1.9375,-0.09149638336316437
-1.93625,-0.09149638336316437
-1.935,-0.0894868459480756
-1.93375,-0.08580269402041285
-1.9325,-0.08077885048269093
-1.93125,-0.07575500694496901
-1.93,-0.07106608630976188
-1.92875,-0.06704701147958436
-1.9275,-0.06436762825946599
-1.92625,-0.06235809084437722
-1.925,-0.06101839923431805
-1.92375,-0.06034855342928845
-1.9225,-0.06001363052677366
-1.92125,-0.05967870762425886
-1.92,-0.05967870762425886
-1.91875,-0.05934378472174407
-1.9175,-0.05867393891671448
-1.91625,-0.0576691702091701
-1.915,-0.0573342473066553
-1.91375,-0.0569993244041405
-1.9125,-0.05800409311168489
-1.91125,-0.05934378472174407
-1.91,-0.06202316794186243
-1.90875,-0.06436762825946599
-1.9075,-0.06570731986952516
-1.90625,-0.06604224277203996
-1.905,-0.06637716567455476
-1.90375,-0.06805178018712874
-1.9025,-0.07073116340724708
-1.90125,-0.07508516113993943
-1.9,-0.08044392758017613
-1.89875,-0.08613761692292765
-1.8975,-0.09149638336316437
-1.89625,-0.09417576658328272
-1.895,-0.09451068948579752
-1.89375,-0.09283607497322355
-1.8925,-0.0898217688505904
-1.89125,-0.08580269402041285
-1.89,-0.08178361919023533
-1.88875,-0.07809946726257258
-1.8875,-0.07508516113993943
-1.88625,-0.07307562372485066
-1.885,-0.07106608630976188
-1.88375,-0.06972639469970271
-1.8825,-0.06738193438209913
-1.88125,-0.06503747406449559
-1.88,-0.06235809084437722
-1.87875,-0.06034855342928845
-1.8775,-0.05967870762425886
-1.87625,-0.05967870762425886
-1.875,-0.05934378472174407
-1.87375,-0.05867393891671448
-1.8725,-0.0573342473066553
-1.87125,-0.05666440150162571
-1.87,-0.05565963279408132
-1.86875,-0.05498978698905174
-1.8675,-0.05465486408653694
-1.86625,-0.05498978698905174
-1.865,-0.05632947859911092
-1.86375,-0.05934378472174407
-1.8625,-0.06269301374689201
-1.86125,-0.06470255116198079
-1.86,-0.06302793664940681
-1.85875,-0.05900886181922927
-1.8575,-0.05365009537899255
-1.85625,-0.04862625184127063
-1.855,-0.04393733120606351
-1.85375,-0.04092302508343035
-1.8525,-0.03924841057085638
-1.85125,-0.03824364186331199
-1.85,-0.03757379605828241
-1.84875,-0.03623410444822323
-1.8475,-0.03489441283816404
-1.84625,-0.03254995252056048
-1.845,-0.03020549220295692
-1.84375,-0.02719118608032377
-1.8425,-0.0248467257627202
-1.84125,-0.02317211125014623
-1.84,-0.02283718834763144
-1.83875,-0.02384195705517582
-1.8375,-0.02618641737277938
-1.83625,-0.02920072349541254
-1.835,-0.03221502961804569
-1.83375,-0.03355472122810487
-1.8325,-0.03288487542307528
-1.83125,-0.03054041510547172
-1.83,-0.02652134027529418
-1.82875,-0.02116257383505746
-1.8275,-0.01513396158979115
-1.82625,-0.009440272247039642
-1.825,-0.004416428709317719
-1.82375,-0.001402122586684566
-1.8225,-0.0007322767816549766
-1.82125,-0.001737045489199361
-1.82,-0.004751351611832514
-1.81875,-0.008435503539495258
-1.8175,-0.01278950127218759
-1.81625,-0.01714349900487992
-1.815,-0.02116257383505746
-1.81375,-0.025181648665235
-1.8125,-0.02853087769038294
-1.81125,-0.0315451838130161
-1.81,-0.03422456703313446
-1.80875,-0.0379087189607972
-1.8075,-0.04159287088845994
-1.80625,-0.04594686862115228
-1.805,-0.05030086635384461
-1.80375,-0.05498978698905174
-1.8025,-0.05900886181922927
-1.80125,-0.06302793664940681
-1.8,-0.06671208857706956
-1.79875,-0.07039624050473231
-1.7975,-0.07441531533490983
-1.79625,-0.07742962145754298
-1.795,-0.07910423597011695
-1.79375,-0.08044392758017613
-1.7925,-0.08111377338520573
-1.79125,-0.08178361919023533
-1.79,-0.0827883878977797
-1.78875,-0.08379315660532408
-1.7875,-0.08513284821538328
-1.78625,-0.08546777111789805
-1.785,-0.08546777111789805
-1.78375,-0.08446300241035368
-1.7825,-0.0821185420927501
-1.78125,-0.07876931306760215
-1.78,-0.07575500694496901
-1.77875,-0.07341054662736546
-1.7775,-0.07140100921227668
-1.77625,-0.06905654889467311
-1.775,-0.06704701147958436
-1.77375,-0.06570731986952516
-1.7725,-0.06503747406449559
-1.77125,-0.06537239696701039
-1.77,-0.06604224277203996
-1.76875,-0.06637716567455476
-1.7675,-0.06671208857706956
-1.76625,-0.06771685728461393
-1.765,-0.07006131760221751
-1.76375,-0.07341054662736546
-1.7625,-0.07742962145754298
-1.76125,-0.08144869628772053
-1.76,-0.08580269402041285
-1.75875,-0.0901566917531052
-1.7575,-0.09384084368076792
-1.75625,-0.0965202269008863
-1.755,-0.09886468721848984
-1.75375,-0.1008742246335786
-1.7525,-0.101878993341123
-1.75125,-0.1012091475360934
-1.75,-0.09819484141346027
-1.74875,-0.09350592077825315
-1.7475,-0.08747730853298682
-1.74625,-0.08077885048269093
-1.745,-0.07475023823742463
-1.74375,-0.06872162599215834
-1.7425,-0.06235809084437722
-1.74125,-0.05666440150162571
-1.74,-0.05231040376893337
-1.73875,-0.04929609764630023
-1.7375,-0.04728656023121146
-1.73625,-0.04594686862115228
-1.735,-0.04393733120606351
-1.73375,-0.04125794798594515
-1.7325,-0.03723887315576761
-1.73125,-0.0318801067155309
-1.73,-0.02585149447026459
-1.72875,-0.0184831906149391
-1.7275,-0.008770426442010051
-1.72625,0.00462648965858174
-1.725,0.02338217219941025
-1.72375,0.04883631279053466
-1.7225,0.07998414272441057
-1.72125,0.1158208932934936
-1.72,0.1533322583751506
-1.71875,0.1901737776517781
-1.7175,0.2236660679032575
-1.71625,0.2531392833245595
-1.715,0.2779235781106543
-1.71375,0.298018952261542
-1.7125,0.3134254057772226
-1.71125,0.3244778615602108
-1.71,0.3311763196105067
-1.70875,0.3331858570255954
-1.7075,0.3311763196105067
-1.70625,0.324142938657696
-1.705,0.3117507912646486
-1.70375,0.2929951087238201
-1.7025,0.26854573684024
-1.70125,0.2404122130289973
-1.7,0.209934228900151
-1.69875,0.178786398966275
-1.6975,0.1489782606424583
-1.69625,0.1208447368312155
-1.695,0.09505567333757634
-1.69375,0.0712761472590259
-1.6925,0.05017600440059383
-1.69125,0.03108539895725053
-1.69,0.014004330928996
-1.68875,-0.001737045489199361
-1.6875,-0.01479903868727636
-1.68625,-0.02551657156774979
-1.685,-0.03556425864319364
-1.68375,-0.04527702281612268
-1.6825,-0.05465486408653694
-1.68125,-0.06470255116198079
-1.68,-0.07508516113993943
-1.67875,-0.08513284821538328
-1.6775,-0.09451068948579752
-1.67625,-0.1028837620486674
-1.675,-0.1112568346115373
-1.67375,-0.1186251384668628
-1.6725,-0.1253235965171587
-1.67125,-0.1300125171523658
-1.67,-0.1323569774699694
-1.66875,-0.1323569774699694
-1.6675,-0.1303474400548806
-1.66625,-0.126328365224703
-1.665,-0.1202997529794367
-1.66375,-0.1136012949291408
-1.6625,-0.1075726826838745
-1.66125,-0.1032186849511822
-1.66,-0.100204378828549
-1.65875,-0.09819484141346027
-1.6575,-0.09719007270591587
-1.65625,-0.0968551498034011
-1.655,-0.09719007270591587
-1.65375,-0.09886468721848984
-1.6525,-0.1008742246335786
-1.65125,-0.1028837620486674
-1.65,-0.1058980681713005
-1.64875,-0.1092472971964485
-1.6475,-0.1125965262215964
-1.64625,-0.1159457552467444
-1.645,-0.1179552926618332
-1.64375,-0.1189600613693775
-1.6425,-0.1189600613693775
-1.64125,-0.1189600613693775
-1.64,-0.118290215564348
-1.63875,-0.1179552926618332
-1.6375,-0.1172854468568036
-1.63625,-0.1162806781492592
-1.635,-0.1149409865392
-1.63375,-0.1129314491241112
-1.6325,-0.1109219117090225
-1.63125,-0.1085774513914189
-1.63,-0.1055631452687857
-1.62875,-0.1015440704386082
-1.6275,-0.09719007270591587
-1.62625,-0.09317099787573835
-1.625,-0.09049161465561997
-1.62375,-0.0891519230455608
-1.6225,-0.0894868459480756
-1.62125,-0.09082653755813477
-1.62,-0.09216622916819395
-1.61875,-0.09216622916819395
-1.6175,-0.09049161465561997
-1.61625,-0.08814715433801643
-1.615,-0.08513284821538328
-1.61375,-0.0821185420927501
-1.6125,-0.07977408177514655
-1.61125,-0.07709469855502818
-1.61,-0.07542008404245421
-1.60875,-0.07441531533490983
-1.6075,-0.07542008404245421
-1.60625,-0.07742962145754298
-1.605,-0.08144869628772053
-1.60375,-0.08546777111789805
-1.6025,-0.08848207724053123
-1.60125,-0.0901566917531052
-1.6,-0.0898217688505904
-1.59875,-0.08814715433801643
-1.5975,-0.08580269402041285
-1.59625,-0.0827883878977797
-1.595,-0.07910423597011695
-1.59375,-0.07642485274999861
-1.5925,-0.07475023823742463
-1.59125,-0.07475023823742463
-1.59,-0.07675977565251341
-1.58875,-0.07876931306760215
-1.5875,-0.08044392758017613
-1.58625,-0.08077885048269093
-1.585,-0.07943915887263175
-1.58375,-0.07776454436005778
-1.5825,-0.07642485274999861
-1.58125,-0.07441531533490983
-1.58,-0.07173593211479148
-1.57875,-0.06805178018712874
-1.5775,-0.06302793664940681
-1.57625,-0.05800409311168489
-1.575,-0.05331517247647776
-1.57375,-0.04862625184127063
-1.5725,-0.0446071770110931
-1.57125,-0.04025317927840076
-1.57,-0.03589918154570843
-1.56875,-0.03221502961804569
-1.5675,-0.02886580059289774
-1.56625,-0.02585149447026459
-1.565,-0.02250226544511664
-1.56375,-0.01982288222499828
-1.5625,-0.0184831906149391
-1.56125,-0.01814826771242431
-1.56,-0.0188181135174539
-1.55875,-0.02116257383505746
-1.5575,-0.02451180286020541
-1.55625,-0.02886580059289774
-1.555,-0.03355472122810487
-1.55375,-0.03857856476582679
-1.5525,-0.04293256249851912
-1.55125,-0.04661671442618186
-1.55,-0.04795640603624104
-1.54875,-0.04728656023121146
-1.5475,-0.0446071770110931
-1.54625,-0.03958333347337117
-1.545,-0.03455948993564925
-1.54375,-0.03054041510547172
-1.5425,-0.02685626317780897
-1.54125,-0.02417687995769061
-1.54,-0.02216734254260185
-1.53875,-0.02082765093254266
-1.5375,-0.01948795932248349
-1.53625,-0.0188181135174539
-1.535,-0.01814826771242431
-1.53375,-0.01747842190739472
-1.5325,-0.01613873029733554
-1.53125,-0.01479903868727636
-1.53,-0.01446411578476156
-1.52875,-0.01446411578476156
-1.5275,-0.01513396158979115
-1.52625,-0.01546888449230595
-1.525,-0.01513396158979115
-1.52375,-0.01379426997973197
-1.5225,-0.01144980966212841
-1.52125,-0.008100580636980463
-1.52,-0.004081505806802925
-1.51875,-6.243097662538694e-05
-1.5175,0.003286798048522561
-1.51625,0.006301104171155715
-1.515,0.007640795781214894
-1.51375,0.007640795781214894
-1.5125,0.007305872878700099
-1.51125,0.007975718683729689
-1.51,0.01065510190384805
-1.50875,0.0136694080264812
-1.5075,0.01634879124659956
-1.50625,0.01835832866168833
-1.505,0.0200329431742623
-1.50375,0.02271232639438066
-1.5025,0.02706632412707299
-1.50125,0.03242509056730971
-1.5,0.03878862571509081
-1.49875,0.0458220066679015
-1.4975,0.05285538762071219
-1.49625,0.0592189227684933
-1.495,0.0652475350137596
-1.49375,0.07094122435651112
-1.4925,0.07629999079674782
-1.49125,0.08132383433446974
-1.49,0.08634767787219166
-1.48875,0.09103659850739881
-1.4875,0.09572551914260594
-1.48625,0.1000795168752983
-1.485,0.1044335146079906
-1.48375,0.1084525894381681
-1.4825,0.1128065871708605
-1.48125,0.116825662001038
-1.48,0.1201748910261859
-1.47875,0.1221844284412747
-1.4775,0.1238590429538487
-1.47625,0.1245288887588783
-1.475,0.1251987345639079
-1.47375,0.1258685803689374
-1.4725,0.1258685803689374
-1.47125,0.1248638116613931
-1.47,0.1235241200513339
-1.46875,0.1221844284412747
-1.4675,0.1205098139287007
-1.46625,0.1174955078060676
-1.465,0.1134764329758901
-1.46375,0.1087875123406829
-1.4625,0.1044335146079906
-1.46125,0.1000795168752983
-1.46,0.09639536494763551
-1.45875,0.09170644431242839
-1.4575,0.08567783206716209
-1.45625,0.07964921982189577
-1.455,0.07462537628417384
-1.45375,0.07094122435651112
-1.4525,0.06859676403890755
-1.45125,0.06725707242884837
-1.45,0.06658722662381877
-1.44875,0.0655824579162744
-1.4475,0.06390784340370043
-1.44625,0.06122846018358206
-1.445,0.05787923115843412
-1.44375,0.05486492503580096
-1.4425,0.05151569601065301
-1.44125,0.04749662118047548
-1.44,0.04314262344778314
-1.43875,0.03744893410503163
-1.4375,0.03108539895725053
-1.43625,0.02304724929689545
-1.435,0.014004330928996
-1.43375,0.003621720951037356
-1.4325,-0.008435503539495258
-1.43125,-0.02183241964008705
-1.43,-0.03623410444822323
-1.42875,-0.0506357892563594
-1.4275,-0.06369778245443641
-1.42625,-0.07475023823742463
-1.425,-0.0831233108002945
-1.42375,-0.088817000143046
-1.4225,-0.09283607497322355
-1.42125,-0.0955154581933419
-1.42,-0.09785991851094547
-1.41875,-0.1012091475360934
-1.4175,-0.1055631452687857
-1.41625,-0.1099171430014781
-1.415,-0.1149409865392
-1.41375,-0.1189600613693775
-1.4125,-0.1223092903945255
-1.41125,-0.1246537507121291
-1.41,-0.1256585194196735
-1.40875,-0.1253235965171587
-1.4075,-0.1236489820045847
-1.40625,-0.1216394445894959
-1.405,-0.1196299071744071
-1.40375,-0.1176203697593184
-1.4025,-0.1159457552467444
-1.40125,-0.1146060636366852
-1.4,-0.1146060636366852
-1.39875,-0.1162806781492592
-1.3975,-0.1189600613693775
-1.39625,-0.1219743674920107
-1.395,-0.1246537507121291
-1.39375,-0.1269982110297326
-1.3925,-0.128002979737277
-1.39125,-0.1290077484448214
-1.39,-0.1303474400548806
-1.38875,-0.1326919003724841
-1.3875,-0.1350363606900877
-1.38625,-0.1380506668127209
-1.385,-0.1403951271303244
-1.38375,-0.1424046645454132
-1.3825,-0.1447491248630167
-1.38125,-0.1467586622781055
-1.38,-0.1480983538881647
-1.37875,-0.1484332767906795
-1.3775,-0.1484332767906795
-1.37625,-0.1480983538881647
-1.375,-0.1470935851806203
-1.37375,-0.1460888164730759
-1.3725,-0.1447491248630167
-1.37125,-0.1437443561554724
-1.37,-0.1440792790579871
-1.36875,-0.1457538935705611
-1.3675,-0.1474285080831351
-1.36625,-0.1480983538881647
-1.365,-0.1474285080831351
-1.36375,-0.1454189706680463
-1.3625,-0.1420697416428984
-1.36125,-0.1383855897152357
-1.36,-0.1343665148850581
-1.35875,-0.1303474400548806
-1.3575,-0.126328365224703
-1.35625,-0.1216394445894959
-1.355,-0.1169505239542888
-1.35375,-0.1122616033190816
-1.3525,-0.1079076055863893
-1.35125,-0.1045583765612414
-1.35,-0.1025488391461526
-1.34875,-0.1015440704386082
-1.3475,-0.1015440704386082
-1.34625,-0.1015440704386082
-1.345,-0.1015440704386082
-1.34375,-0.1012091475360934
-1.3425,-0.1005393017310638
-1.34125,-0.09953453302351944
-1.34,-0.09886468721848984
-1.33875,-0.09919961012100464
-1.3375,-0.100204378828549
-1.33625,-0.1022139162436378
-1.335,-0.1042234536587266
-1.33375,-0.1069028368788449
-1.3325,-0.1092472971964485
-1.33125,-0.1115917575140521
-1.33,-0.1142711407341704
-1.32875,-0.1169505239542888
-1.3275,-0.1206346758819515
-1.32625,-0.1243188278096143
-1.325,-0.1269982110297326
-1.32375,-0.128002979737277
-1.3225,-0.128002979737277
-1.32125,-0.1273331339322474
-1.32,-0.126328365224703
-1.31875,-0.1256585194196735
-1.3175,-0.1236489820045847
-1.31625,-0.1202997529794367
-1.315,-0.1159457552467444
-1.31375,-0.1102520659039929
-1.3125,-0.1042234536587266
-1.31125,-0.09819484141346027
-1.31,-0.09216622916819395
-1.30875,-0.08647253982544245
-1.3075,-0.08178361919023533
-1.30625,-0.07943915887263175
-1.305,-0.07776454436005778
-1.30375,-0.07709469855502818
-1.3025,-0.07709469855502818
-1.30125,-0.07876931306760215
-1.3,-0.08111377338520573
-1.29875,-0.0834582337028093
-1.2975,-0.08479792531286848
-1.29625,-0.08446300241035368
-1.295,-0.0824534649952649
-1.29375,-0.08044392758017613
-1.2925,-0.07843439016508738
-1.29125,-0.07709469855502818
-1.29,-0.07642485274999861
-1.28875,-0.07642485274999861
-1.2875,-0.07709469855502818
-1.28625,-0.07876931306760215
-1.285,-0.08111377338520573
-1.28375,-0.08412807950783888
-1.2825,-0.08747730853298682
-1.28125,-0.09116146046064957
-1.28,-0.09350592077825315
-1.27875,-0.09417576658328272
-1.2775,-0.09384084368076792
-1.27625,-0.09317099787573835
-1.275,-0.09216622916819395
-1.27375,-0.09116146046064957
-1.2725,-0.0898217688505904
-1.27125,-0.088817000143046
-1.27,-0.08747730853298682
-1.26875,-0.08680746272795725
-1.2675,-0.08580269402041285
-1.26625,-0.08513284821538328
-1.265,-0.08479792531286848
-1.26375,-0.08479792531286848
-1.2625,-0.08446300241035368
-1.26125,-0.0831233108002945
-1.26,-0.08077885048269093
-1.25875,-0.07776454436005778
-1.2575,-0.07542008404245421
-1.25625,-0.07307562372485066
-1.255,-0.07173593211479148
-1.25375,-0.07106608630976188
-1.2525,-0.07039624050473231
-1.25125,-0.06972639469970271
-1.25,-0.06872162599215834
-1.24875,-0.06738193438209913
-1.2475,-0.06604224277203996
-1.24625,-0.06470255116198079
-1.245,-0.06403270535695119
-1.24375,-0.06470255116198079
-1.2425,-0.06570731986952516
-1.24125,-0.06771685728461393
-1.24,-0.06972639469970271
-1.23875,-0.07173593211479148
-1.2375,-0.07341054662736546
-1.23625,-0.07441531533490983
-1.235,-0.07475023823742463
-1.23375,-0.07441531533490983
-1.2325,-0.07408039243239503
-1.23125,-0.07374546952988023
-1.23,-0.07374546952988023
-1.22875,-0.07408039243239503
-1.2275,-0.07508516113993943
-1.22625,-0.07542008404245421
-1.225,-0.07508516113993943
-1.22375,-0.07374546952988023
-1.2225,-0.07274070082233586
-1.22125,-0.07106608630976188
-1.22,-0.06872162599215834
-1.21875,-0.06503747406449559
-1.2175,-0.06068347633180324
-1.21625,-0.05632947859911092
-1.215,-0.05264532667144817
-1.21375,-0.0509707121588742
-1.2125,-0.0509707121588742
-1.21125,-0.05197548086641858
-1.21,-0.05365009537899255
-1.20875,-0.05632947859911092
-1.2075,-0.06068347633180324
-1.20625,-0.06570731986952516
-1.205,-0.07140100921227668
-1.20375,-0.07709469855502818
-1.2025,-0.0821185420927501
-1.20125,-0.08613761692292765
-1.2,-0.0891519230455608
-1.19875,-0.09116146046064957
-1.1975,-0.09183130626567917
-1.19625,-0.09082653755813477
-1.195,-0.0894868459480756
-1.19375,-0.08781223143550163
-1.1925,-0.08680746272795725
-1.19125,-0.08479792531286848
-1.19,-0.0821185420927501
-1.18875,-0.07809946726257258
-1.1875,-0.07341054662736546
-1.18625,-0.06905654889467311
-1.185,-0.06503747406449559
-1.18375,-0.06235809084437722
-1.1825,-0.06135332213683284
-1.18125,-0.06202316794186243
-1.18,-0.06403270535695119
-1.17875,-0.06704701147958436
-1.1775,-0.07039624050473231
-1.17625,-0.07374546952988023
-1.175,-0.07575500694496901
-1.17375,-0.07642485274999861
-1.1725,-0.07608992984748381
-1.17125,-0.07441531533490983
-1.17,-0.07207085501730626
-1.16875,-0.06972639469970271
-1.1675,-0.06738193438209913
-1.16625,-0.06537239696701039
-1.165,-0.06336285955192161
-1.16375,-0.06068347633180324
-1.1625,-0.0576691702091701
-1.16125,-0.05498978698905174
-1.16,-0.05231040376893337
-1.15875,-0.04996594345132981
-1.1575,-0.04795640603624104
-1.15625,-0.04728656023121146
-1.155,-0.04762148313372625
-1.15375,-0.04896117474378543
-1.1525,-0.05130563506138899
-1.15125,-0.05431994118402215
-1.15,-0.05800409311168489
-1.14875,-0.06235809084437722
-1.1475,-0.06637716567455476
-1.14625,-0.07006131760221751
-1.145,-0.07274070082233586
-1.14375,-0.07408039243239503
-1.1425,-0.07475023823742463
-1.14125,-0.07441531533490983
-1.14,-0.07307562372485066
-1.13875,-0.07106608630976188
-1.1375,-0.06972639469970271
-1.13625,-0.06972639469970271
-1.135,-0.07106608630976188
-1.13375,-0.07307562372485066
-1.1325,-0.07508516113993943
-1.13125,-0.07608992984748381
-1.13,-0.07542008404245421
-1.12875,-0.07341054662736546
-1.1275,-0.07039624050473231
-1.12625,-0.06671208857706956
-1.125,-0.06168824503934763
-1.12375,-0.05632947859911092
-1.1225,-0.05264532667144817
-1.12125,-0.04996594345132981
-1.12,-0.04929609764630023
-1.11875,-0.04996594345132981
-1.1175,-0.05164055796390379
-1.11625,-0.05365009537899255
-1.115,-0.05532470989156653
-1.11375,-0.05498978698905174
-1.1125,-0.05298024957396297
-1.11125,-0.05030086635384461
-1.11,-0.04695163732869666
-1.10875,-0.04393733120606351
-1.1075,-0.04092302508343035
-1.10625,-0.03857856476582679
-1.105,-0.03656902735073802
-1.10375,-0.03455948993564925
-1.1025,-0.03321979832559007
-1.10125,-0.03221502961804569
-1.1,-0.03054041510547172
-1.09875,-0.02886580059289774
-1.0975,-0.02752610898283856
-1.09625,-0.02685626317780897
-1.095,-0.02652134027529418
-1.09375,-0.02618641737277938
-1.0925,-0.02618641737277938
-1.09125,-0.02551657156774979
-1.09,-0.02417687995769061
-1.08875,-0.02216734254260185
-1.0875,-0.01982288222499828
-1.08625,-0.01781334480990951
-1.085,-0.01680857610236513
-1.08375,-0.01647365319985033
-1.0825,-0.01580380739482074
-1.08125,-0.01546888449230595
-1.08,-0.01546888449230595
-1.07875,-0.01513396158979115
-1.0775,-0.01513396158979115
-1.07625,-0.01479903868727636
-1.075,-0.01412919288224677
-1.07375,-0.01312442417470238
-1.0725,-0.01278950127218759
-1.07125,-0.01446411578476156
-1.07,-0.01781334480990951
-1.06875,-0.02250226544511664
-1.0675,-0.02752610898283856
-1.06625,-0.0318801067155309
-1.065,-0.03589918154570843
-1.06375,-0.04025317927840076
-1.0625,-0.0442722541085783
-1.06125,-0.04762148313372625
-1.06,-0.04963102054881502
-1.05875,-0.04963102054881502
-1.0575,-0.04862625184127063
-1.05625,-0.04762148313372625
-1.055,-0.04695163732869666
-1.05375,-0.04695163732869666
-1.0525,-0.04695163732869666
-1.05125,-0.04829132893875584
-1.05,-0.0509707121588742
-1.04875,-0.05431994118402215
-1.0475,-0.0573342473066553
-1.04625,-0.06068347633180324
-1.045,-0.06369778245443641
-1.04375,-0.06604224277203996
-1.0425,-0.06805178018712874
-1.04125,-0.07006131760221751
-1.04,-0.07207085501730626
-1.03875,-0.07441531533490983
-1.0375,-0.07709469855502818
-1.03625,-0.07943915887263175
-1.035,-0.08111377338520573
-1.03375,-0.08144869628772053
-1.0325,-0.0821185420927501
-1.03125,-0.08379315660532408
-1.03,-0.08747730853298682
-1.02875,-0.09216622916819395
-1.0275,-0.0961853039983715
-1.02625,-0.09819484141346027
-1.025,-0.09819484141346027
-1.02375,-0.09719007270591587
-1.0225,-0.09518053529082712
-1.02125,-0.09250115207070875
-1.02,-0.088817000143046
-1.01875,-0.08446300241035368
-1.0175,-0.07977408177514655
-1.01625,-0.07575500694496901
-1.015,-0.07341054662736546
-1.01375,-0.07274070082233586
-1.0125,-0.07374546952988023
-1.01125,-0.07608992984748381
-1.01,-0.07943915887263175
-1.00875,-0.0824534649952649
-1.0075,-0.08513284821538328
-1.00625,-0.08781223143550163
-1.005,-0.09082653755813477
-1.00375,-0.09451068948579752
-1.0025,-0.09719007270591587
-1.00125,-0.09852976431597507
-1,-0.09719007270591587
-0.99875,-0.09317099787573835
-0.9975000000000001,-0.08647253982544245
-0.99625,-0.07809946726257258
-0.995,-0.06838670308964354
-0.99375,-0.0576691702091701
-0.9925,-0.04795640603624104
-0.99125,-0.04025317927840076
-0.99,-0.03489441283816404
-0.98875,-0.0318801067155309
-0.9875,-0.03054041510547172
-0.98625,-0.03087533800798651
-0.985,-0.03254995252056048
-0.98375,-0.03422456703313446
-0.9825,-0.03422456703313446
-0.98125,-0.0318801067155309
-0.98,-0.02719118608032377
-0.97875,-0.02015780512751307
-0.9775,-0.01111488675961362
-0.97625,0.001947106438463382
-0.975,0.01969802027174751
-0.97375,0.04314262344778314
-0.9725,0.0712761472590259
-0.9712499999999999,0.1027589000954166
-0.97,0.1362511903468961
-0.96875,0.1694085576958608
-0.9675,0.2015611563372811
-0.9662500000000001,0.2303645259535534
-0.965,0.2564885123497074
-0.96375,0.2806029613307727
-0.9625,0.3020380270917195
-0.96125,0.3207937096325481
-0.96,0.335530317343199
-0.95875,0.346917696028702
-0.9575,0.3539510769815127
-0.95625,0.3559606143966015
-0.955,0.3522764624689387
-0.95375,0.3412240066859505
-0.9525,0.3217984783400924
-0.95125,0.2960094148464532
-0.95,0.2645266620100625
-0.94875,0.2306994488560682
-0.9475,0.1958674669945296
-0.94625,0.1613704080355057
-0.945,0.1278781177840262
-0.94375,0.09673028785015031
-0.9425,0.06893168694142235
-0.94125,0.04515216086287191
-0.9399999999999999,0.02438694090695464
-0.93875,0.006970949976185304
-0.9375,-0.007765657734465668
-0.93625,-0.02015780512751307
-0.9350000000000001,-0.03087533800798651
-0.93375,-0.04025317927840076
-0.9325,-0.04929609764630023
-0.93125,-0.0576691702091701
-0.93,-0.06637716567455476
-0.92875,-0.07475023823742463
-0.9275,-0.0831233108002945
-0.92625,-0.09116146046064957
-0.925,-0.09819484141346027
-0.92375,-0.1038885307562118
-0.9225,-0.1082425284889041
-0.92125,-0.1109219117090225
-0.92,-0.1115917575140521
-0.91875,-0.1109219117090225
-0.9175,-0.1105869888065077
-0.91625,-0.1102520659039929
-0.915,-0.1099171430014781
-0.91375,-0.1095822200989633
-0.9125,-0.1099171430014781
-0.91125,-0.1105869888065077
-0.91,-0.1112568346115373
-0.9087499999999999,-0.1115917575140521
-0.9075,-0.1119266804165669
-0.90625,-0.113266372026626
-0.905,-0.1149409865392
-0.9037500000000001,-0.1169505239542888
-0.9025,-0.1202997529794367
-0.90125,-0.1233140591020699
-0.9,-0.1256585194196735
-0.89875,-0.1256585194196735
-0.8975,-0.1246537507121291
-0.89625,-0.1226442132970403
-0.895,-0.1199648300769219
-0.89375,-0.1172854468568036
-0.8925,-0.1149409865392
-0.89125,-0.1125965262215964
-0.89,-0.1105869888065077
-0.88875,-0.1092472971964485
-0.8875,-0.1099171430014781
-0.88625,-0.1112568346115373
-0.885,-0.1125965262215964
-0.88375,-0.1136012949291408
-0.8825,-0.1139362178316556
-0.88125,-0.1136012949291408
-0.88,-0.113266372026626
-0.87875,-0.1115917575140521
-0.8774999999999999,-0.1095822200989633
-0.87625,-0.1072377597813597
-0.875,-0.1048932994637562
-0.87375,-0.1028837620486674
-0.8725000000000001,-0.1008742246335786
-0.87125,-0.09953453302351944
-0.87,-0.09852976431597507
-0.86875,-0.09785991851094547
-0.8675,-0.09785991851094547
-0.86625,-0.09819484141346027
-0.865,-0.09886468721848984
-0.86375,-0.09986945592603425
-0.8625,-0.1008742246335786
-0.86125,-0.1015440704386082
-0.86,-0.101878993341123
-0.85875,-0.1022139162436378
-0.8575,-0.1022139162436378
-0.85625,-0.1022139162436378
-0.855,-0.103553607853697
-0.85375,-0.1048932994637562
-0.8525,-0.1062329910738153
-0.85125,-0.1065679139763301
-0.85,-0.1062329910738153
-0.84875,-0.1042234536587266
-0.8475,-0.1008742246335786
-0.8462499999999999,-0.0965202269008863
-0.845,-0.09183130626567917
-0.84375,-0.08714238563047202
-0.8425,-0.0824534649952649
-0.8412500000000001,-0.07843439016508738
-0.84,-0.07575500694496901
-0.83875,-0.07307562372485066
-0.8375,-0.07140100921227668
-0.83625,-0.07073116340724708
-0.835,-0.07039624050473231
-0.83375,-0.07006131760221751
-0.8325,-0.06905654889467311
-0.83125,-0.06905654889467311
-0.83,-0.06939147179718791
-0.82875,-0.07006131760221751
-0.8275,-0.07006131760221751
-0.82625,-0.06872162599215834
-0.825,-0.06570731986952516
-0.82375,-0.06135332213683284
-0.8225,-0.0576691702091701
-0.82125,-0.05498978698905174
-0.82,-0.05298024957396297
-0.81875,-0.0509707121588742
-0.8175,-0.04862625184127063
-0.81625,-0.04561194571863748
-0.8149999999999999,-0.04326748540103392
-0.81375,-0.04159287088845994
-0.8125,-0.03991825637588597
-0.81125,-0.0379087189607972
-0.8100000000000001,-0.03522933574067885
-0.80875,-0.03321979832559007
-0.8075,-0.0315451838130161
-0.80625,-0.03020549220295692
-0.805,-0.02920072349541254
-0.80375,-0.02886580059289774
-0.8025,-0.02853087769038294
-0.80125,-0.02786103188535335
-0.8,-0.02786103188535335
-0.79875,-0.02886580059289774
-0.7975,-0.02987056930044213
-0.79625,-0.0318801067155309
-0.795,-0.03355472122810487
-0.79375,-0.03556425864319364
-0.7925,-0.03690395025325281
-0.79125,-0.03757379605828241
-0.79,-0.03656902735073802
-0.78875,-0.03388964413061966
-0.7875,-0.03020549220295692
-0.78625,-0.02618641737277938
-0.785,-0.02317211125014623
-0.7837499999999999,-0.02183241964008705
-0.7825,-0.02149749673757225
-0.78125,-0.02116257383505746
-0.78,-0.01948795932248349
-0.7787500000000001,-0.01647365319985033
-0.7775,-0.0117847325646432
-0.77625,-0.006091043221891693
-0.775,0.0002724919258894079
-0.77375,0.006970949976185304
-0.7725,0.01299956222145161
-0.77125,0.01869325156420312
-0.77,0.02304724929689545
-0.76875,0.0267314012245582
-0.7675,0.02907586154216176
-0.76625,0.03142032185976532
-0.765,0.0334298592748541
-0.76375,0.03510447378742807
-0.7625,0.03577431959245766
-0.76125,0.03577431959245766
-0.76,0.03510447378742807
-0.75875,0.03376478217736889
-0.7575,0.03242509056730971
-0.75625,0.03175524476228012
-0.755,0.03175524476228012
-0.75375,0.0327600134698245
-0.7524999999999999,0.03376478217736889
-0.75125,0.03409970507988368
-0.75,0.0334298592748541
-0.74875,0.0327600134698245
-0.7475000000000001,0.03242509056730971
-0.74625,0.03376478217736889
-0.745,0.03677908830000204
-0.74375,0.04113308603269437
-0.7425,0.04548708376538671
-0.74125,0.05017600440059383
-0.74,0.05586969374334535
-0.73875,0.06357292050118563
-0.7375,0.0722809159665703
-0.73625,0.08065398852944017
-0.735,0.08735244657973606
-0.73375,0.09070167560488401
-0.7325,0.09170644431242839
-0.73125,0.09137152140991359
-0.73,0.09003182979985441
-0.72875,0.08902706109231004
-0.7275,0.08969690689733961
-0.72625,0.09204136721494319
-0.725,0.09606044204512074
-0.72375,0.1014192084853574
-0.7225,0.1067779749255942
-0.7212499999999999,0.1124716642683457
-0.72,0.1178304307085824
-0.71875,0.1228542742463043
-0.7175,0.1278781177840262
-0.7162500000000001,0.1322321155167186
-0.715,0.1359162674443813
-0.71375,0.1382607277619849
-0.7125,0.139600419372044
-0.71125,0.1406051880795884
-0.71,0.1402702651770736
-0.70875,0.1392654964695292
-0.7075,0.1362511903468961
-0.70625,0.1308924239066594
-0.705,0.1238590429538487
-0.70375,0.1161558161960084
-0.7025,0.1074478207306238
-0.70125,0.09873982526523908
-0.7,0.09036675270236921
-0.69875,0.08165875723698454
-0.6975,0.07295076177159987
-0.69625,0.06424276630621523
-0.695,0.05586969374334535
-0.69375,0.04850138988801986
-0.6925,0.04146800893520917
-0.69125,0.03543939668994286
-0.6899999999999999,0.02974570734719135
-0.68875,0.02371709510192505
-0.6875,0.01802340575917353
-0.68625,0.01232971641642202
-0.6850000000000001,0.006636027073670509
-0.68375,0.0002724919258894079
-0.6825,-0.006091043221891693
-0.68125,-0.0117847325646432
-0.68,-0.01714349900487992
-0.67875,-0.02317211125014623
-0.6775,-0.03054041510547172
-0.67625,-0.03924841057085638
-0.675,-0.04896117474378543
-0.67375,-0.05800409311168489
-0.6725,-0.06704701147958436
-0.67125,-0.07508516113993943
-0.67,-0.08178361919023533
-0.66875,-0.08814715433801643
-0.6675,-0.09417576658328272
-0.66625,-0.1008742246335786
-0.665,-0.1082425284889041
-0.66375,-0.1156108323442296
-0.6625,-0.1223092903945255
-0.66125,-0.1283379026397918
-0.66,-0.1333617461775137
-0.6587499999999999,-0.1377157439102061
-0.6575,-0.1417348187403836
-0.65625,-0.1457538935705611
-0.655,-0.1497729684007387
-0.6537500000000001,-0.1527872745233718
-0.6525,-0.1547968119384606
-0.65125,-0.1547968119384606
-0.65,-0.1527872745233718
-0.64875,-0.1504428142057683
-0.6475,-0.1484332767906795
-0.64625,-0.1477634309856499
-0.645,-0.1487681996931943
-0.64375,-0.1511126600107978
-0.6425,-0.1531221974258866
-0.64125,-0.1544618890359458
-0.64,-0.1544618890359458
-0.63875,-0.1531221974258866
-0.6375,-0.150777737108283
-0.63625,-0.1480983538881647
-0.635,-0.1444142019605019
-0.63375,-0.1400602042278096
-0.6325,-0.1350363606900877
-0.63125,-0.1306823629573954
-0.63,-0.1266632881272178
-0.62875,-0.1243188278096143
-0.6274999999999999,-0.1229791361995551
-0.62625,-0.1229791361995551
-0.625,-0.1236489820045847
-0.62375,-0.1253235965171587
-0.6225000000000001,-0.1286728255423066
-0.62125,-0.1333617461775137
-0.62,-0.1390554355202653
-0.61875,-0.1450840477655315
-0.6175,-0.1497729684007387
-0.61625,-0.152452351620857
-0.615,-0.1534571203284014
-0.61375,-0.152452351620857
-0.6125,-0.1501078913032535
-0.61125,-0.1464237393755907
-0.61,-0.1420697416428984
-0.60875,-0.1370458981051765
-0.6075,-0.131352208762425
-0.60625,-0.1259934423221882
-0.605,-0.1213045216869811
-0.60375,-0.1176203697593184
-0.6025,-0.1149409865392
-0.60125,-0.1139362178316556
-0.6,-0.113266372026626
-0.59875,-0.1129314491241112
-0.5975,-0.1129314491241112
-0.5962499999999999,-0.1129314491241112
-0.595,-0.1129314491241112
-0.59375,-0.1129314491241112
-0.5925,-0.113266372026626
-0.5912500000000001,-0.1142711407341704
-0.59,-0.1162806781492592
-0.58875,-0.1196299071744071
-0.5875,-0.1239839049070995
-0.58625,-0.128002979737277
-0.585,-0.131352208762425
-0.58375,-0.1323569774699694
-0.5825,-0.1326919003724841
-0.58125,-0.1326919003724841
-0.58,-0.1326919003724841
-0.57875,-0.1320220545674546
-0.5775,-0.1303474400548806
-0.57625,-0.1273331339322474
-0.575,-0.1236489820045847
-0.57375,-0.1199648300769219
-0.5725,-0.116615601051774
-0.57125,-0.113266372026626
-0.57,-0.1099171430014781
-0.56875,-0.1069028368788449
-0.5675,-0.1048932994637562
-0.56625,-0.1032186849511822
-0.5649999999999999,-0.1022139162436378
-0.56375,-0.1012091475360934
-0.5625,-0.1005393017310638
-0.56125,-0.1005393017310638
-0.5600000000000001,-0.1005393017310638
-0.55875,-0.100204378828549
-0.5575,-0.09986945592603425
-0.55625,-0.09919961012100464
-0.555,-0.09752499560843067
-0.55375,-0.09484561238831232
-0.5525,-0.09149638336316437
-0.55125,-0.08848207724053123
-0.55,-0.08613761692292765
-0.54875,-0.08446300241035368
-0.5475,-0.08446300241035368
-0.54625,-0.08513284821538328
-0.545,-0.08580269402041285
-0.54375,-0.08613761692292765
-0.5425,-0.08580269402041285
-0.54125,-0.08379315660532408
-0.54,-0.08077885048269093
-0.53875,-0.07742962145754298
-0.5375,-0.07508516113993943
-0.53625,-0.07374546952988023
-0.535,-0.07408039243239503
-0.5337499999999999,-0.07608992984748381
-0.5325,-0.07910423597011695
-0.53125,-0.0824534649952649
-0.53,-0.08546777111789805
-0.5287500000000001,-0.08814715433801643
-0.5275,-0.0894868459480756
-0.52625,-0.088817000143046
-0.525,-0.08680746272795725
-0.52375,-0.0834582337028093
-0.5225,-0.08077885048269093
-0.52125,-0.07910423597011695
-0.52,-0.07742962145754298
-0.51875,-0.07642485274999861
-0.5175,-0.07575500694496901
-0.51625,-0.07642485274999861
-0.515,-0.07876931306760215
-0.51375,-0.0821185420927501
-0.5125,-0.08513284821538328
-0.51125,-0.08714238563047202
-0.51,-0.08814715433801643
-0.50875,-0.08848207724053123
-0.5075,-0.088817000143046
-0.50625,-0.0894868459480756
-0.505,-0.09149638336316437
-0.50375,-0.09350592077825315
-0.5024999999999999,-0.09518053529082712
-0.50125,-0.0955154581933419
-0.5,-0.09518053529082712
-0.49875,-0.09417576658328272
-0.4975,-0.09283607497322355
-0.49625,-0.09082653755813477
-0.495,-0.08781223143550163
-0.49375,-0.08446300241035368
-0.4925,-0.0821185420927501
-0.49125,-0.07943915887263175
-0.49,-0.07642485274999861
-0.48875,-0.07374546952988023
-0.4875,-0.07207085501730626
-0.48625,-0.07140100921227668
-0.485,-0.07039624050473231
-0.48375,-0.06972639469970271
-0.4825,-0.06905654889467311
-0.48125,-0.06872162599215834
-0.48,-0.06905654889467311
-0.47875,-0.06972639469970271
-0.4775,-0.07106608630976188
-0.47625,-0.07173593211479148
-0.475,-0.07207085501730626
-0.47375,-0.07240577791982106
-0.4725,-0.07240577791982106
-0.47125,-0.07207085501730626
-0.47,-0.07207085501730626
-0.46875,-0.07341054662736546
-0.4675,-0.07542008404245421
-0.46625,-0.07776454436005778
-0.465,-0.08044392758017613
-0.46375,-0.0821185420927501
-0.4625,-0.0834582337028093
-0.46125,-0.0834582337028093
-0.46,-0.0821185420927501
-0.45875,-0.07910423597011695
-0.4575,-0.07575500694496901
-0.45625,-0.07173593211479148
-0.455,-0.06771685728461393
-0.45375,-0.06336285955192161
-0.4525,-0.06001363052677366
-0.45125,-0.0573342473066553
-0.45,-0.05565963279408132
-0.44875,-0.05465486408653694
-0.4475,-0.05431994118402215
-0.44625,-0.05498978698905174
-0.445,-0.05632947859911092
-0.44375,-0.0576691702091701
-0.4425,-0.05800409311168489
-0.44125,-0.05833901601419968
-0.44,-0.05900886181922927
-0.43875,-0.06135332213683284
-0.4375,-0.06637716567455476
-0.43625,-0.07307562372485066
-0.435,-0.07977408177514655
-0.43375,-0.08613761692292765
-0.4325,-0.09116146046064957
-0.43125,-0.09451068948579752
-0.43,-0.0955154581933419
-0.42875,-0.09518053529082712
-0.4275,-0.09451068948579752
-0.42625,-0.09417576658328272
-0.425,-0.09417576658328272
-0.42375,-0.09350592077825315
-0.4225,-0.09216622916819395
-0.42125,-0.0894868459480756
-0.42,-0.08613761692292765
-0.41875,-0.0821185420927501
-0.4175,-0.07876931306760215
-0.41625,-0.07608992984748381
-0.415,-0.07408039243239503
-0.41375,-0.07173593211479148
-0.4125,-0.06939147179718791
-0.41125,-0.06738193438209913
-0.41,-0.06570731986952516
-0.40875,-0.06470255116198079
-0.4075,-0.06436762825946599
-0.40625,-0.06470255116198079
-0.405,-0.06604224277203996
-0.40375,-0.06872162599215834
-0.4025,-0.07173593211479148
-0.40125,-0.07475023823742463
-0.4,-0.07709469855502818
-0.39875,-0.07943915887263175
-0.3975,-0.08144869628772053
-0.39625,-0.0827883878977797
-0.395,-0.08379315660532408
-0.39375,-0.08446300241035368
-0.3925,-0.08412807950783888
-0.39125,-0.08178361919023533
-0.39,-0.07910423597011695
-0.38875,-0.07642485274999861
-0.3875,-0.07374546952988023
-0.38625,-0.07106608630976188
-0.385,-0.06972639469970271
-0.38375,-0.06939147179718791
-0.3825,-0.07006131760221751
-0.38125,-0.07173593211479148
-0.38,-0.07475023823742463
-0.37875,-0.07977408177514655
-0.3775,-0.08546777111789805
-0.37625,-0.0898217688505904
-0.375,-0.09183130626567917
-0.37375,-0.09149638336316437
-0.3725,-0.0891519230455608
-0.37125,-0.08479792531286848
-0.37,-0.07910423597011695
-0.36875,-0.07240577791982106
-0.3675,-0.06537239696701039
-0.36625,-0.05900886181922927
-0.365,-0.05465486408653694
-0.36375,-0.05164055796390379
-0.3625,-0.04896117474378543
-0.36125,-0.04695163732869666
-0.36,-0.04494209991360789
-0.35875,-0.04326748540103392
-0.3575,-0.04192779379097474
-0.35625,-0.04226271669348954
-0.355,-0.04527702281612268
-0.35375,-0.05030086635384461
-0.3525,-0.05632947859911092
-0.35125,-0.06235809084437722
-0.35,-0.06637716567455476
-0.34875,-0.06771685728461393
-0.3475,-0.06570731986952516
-0.34625,-0.06135332213683284
-0.345,-0.05599455569659612
-0.34375,-0.05164055796390379
-0.3425,-0.04829132893875584
-0.34125,-0.04494209991360789
-0.34,-0.04159287088845994
-0.33875,-0.03690395025325281
-0.3375,-0.03221502961804569
-0.33625,-0.02719118608032377
-0.335,-0.02216734254260185
-0.33375,-0.0184831906149391
-0.3325,-0.01613873029733554
-0.33125,-0.01613873029733554
-0.33,-0.01781334480990951
-0.32875,-0.02015780512751307
-0.3275,-0.02183241964008705
-0.32625,-0.02283718834763144
-0.325,-0.02250226544511664
-0.32375,-0.02116257383505746
-0.3225,-0.0188181135174539
-0.32125,-0.01647365319985033
-0.32,-0.01513396158979115
-0.31875,-0.01513396158979115
-0.3175,-0.01580380739482074
-0.31625,-0.01714349900487992
-0.315,-0.0188181135174539
-0.31375,-0.02049272803002787
-0.3125,-0.02216734254260185
-0.31125,-0.02317211125014623
-0.31,-0.02384195705517582
-0.30875,-0.02451180286020541
-0.3075,-0.02551657156774979
-0.30625,-0.02752610898283856
-0.305,-0.03054041510547172
-0.30375,-0.03455948993564925
-0.3025,-0.03924841057085638
-0.30125,-0.04393733120606351
-0.3,-0.04762148313372625
-0.29875,-0.04929609764630023
-0.2975,-0.04929609764630023
-0.29625,-0.04829132893875584
-0.295,-0.04762148313372625
-0.29375,-0.04762148313372625
-0.2925,-0.04762148313372625
-0.29125,-0.04695163732869666
-0.29,-0.04561194571863748
-0.28875,-0.04494209991360789
-0.2875,-0.04561194571863748
-0.28625,-0.04728656023121146
-0.285,-0.04996594345132981
-0.28375,-0.05298024957396297
-0.2825,-0.05632947859911092
-0.28125,-0.06034855342928845
-0.28,-0.06436762825946599
-0.27875,-0.06838670308964354
-0.2775,-0.07240577791982106
-0.27625,-0.07575500694496901
-0.275,-0.07809946726257258
-0.27375,-0.07943915887263175
-0.2725,-0.07910423597011695
-0.27125,-0.07776454436005778
-0.27,-0.07675977565251341
-0.26875,-0.07575500694496901
-0.2675,-0.07374546952988023
-0.26625,-0.07140100921227668
-0.265,-0.06905654889467311
-0.26375,-0.06771685728461393
-0.2625,-0.06771685728461393
-0.26125,-0.06905654889467311
-0.26,-0.07207085501730626
-0.25875,-0.07575500694496901
-0.2575,-0.08010900467766136
-0.25625,-0.08479792531286848
-0.255,-0.0898217688505904
-0.25375,-0.09417576658328272
-0.2525,-0.0968551498034011
-0.25125,-0.09785991851094547
-0.25,-0.0968551498034011
-0.24875,-0.09484561238831232
-0.2475,-0.09216622916819395
-0.24625,-0.088817000143046
-0.245,-0.08546777111789805
-0.24375,-0.0827883878977797
-0.2425,-0.08044392758017613
-0.24125,-0.07910423597011695
-0.24,-0.07843439016508738
-0.23875,-0.07876931306760215
-0.2375,-0.07977408177514655
-0.23625,-0.08044392758017613
-0.235,-0.08044392758017613
-0.23375,-0.08077885048269093
-0.2325,-0.08144869628772053
-0.23125,-0.08178361919023533
-0.23,-0.08178361919023533
-0.22875,-0.08010900467766136
-0.2275,-0.07742962145754298
-0.22625,-0.07508516113993943
-0.225,-0.07341054662736546
-0.22375,-0.07173593211479148
-0.2225,-0.06905654889467311
-0.22125,-0.06537239696701039
-0.22,-0.06101839923431805
-0.21875,-0.05632947859911092
-0.2175,-0.05164055796390379
-0.21625,-0.04594686862115228
-0.215,-0.03824364186331199
-0.21375,-0.02786103188535335
-0.2125,-0.01446411578476156
-0.21125,0.002282029340978177
-0.21,0.02405201800443984
-0.20875,0.05084585020562343
-0.2075,0.08165875723698454
-0.20625,0.115151047488464
-0.205,0.1499830293500027
-0.20375,0.1844800883090265
-0.2025,0.2176374556579912
-0.20125,0.2481154397868376
-0.2,0.2739045032804768
-0.19875,0.296344337748968
-0.1975,0.3151000202897965
-0.19625,0.3305064738054771
-0.195,0.3428986211985245
-0.19375,0.3522764624689387
-0.1925,0.3569653831041459
-0.19125,0.3566304602016311
-0.19,0.3506018479563648
-0.18875,0.3382097005633173
-0.1875,0.3204587867300333
-0.18625,0.2970141835539976
-0.185,0.2695505055477844
-0.18375,0.2397423672239677
-0.1825,0.2075897685825474
-0.18125,0.1747673241360975
-0.18,0.1422798025921624
-0.17875,0.1104621268532569
-0.1775,0.08065398852944017
-0.17625,0.05319031052322699
-0.175,0.02907586154216176
-0.17375,0.007975718683729689
-0.1725,-0.01011011805206923
-0.17125,-0.02618641737277938
-0.17,-0.04092302508343035
-0.16875,-0.05431994118402215
-0.1675,-0.06637716567455476
-0.16625,-0.07642485274999861
-0.165,-0.08513284821538328
-0.16375,-0.09250115207070875
-0.1625,-0.09852976431597507
-0.16125,-0.103553607853697
-0.16,-0.1072377597813597
-0.15875,-0.1109219117090225
-0.1575,-0.1146060636366852
-0.15625,-0.1186251384668628
-0.155,-0.1219743674920107
-0.15375,-0.1249886736146439
-0.1525,-0.1273331339322474
-0.15125,-0.1293426713473362
-0.15,-0.1306823629573954
-0.14875,-0.1310172858599102
-0.1475,-0.131352208762425
-0.14625,-0.1316871316649398
-0.145,-0.1323569774699694
-0.14375,-0.1330268232749989
-0.1425,-0.1340315919825433
-0.14125,-0.1360411293976321
-0.14,-0.1380506668127209
-0.13875,-0.1397252813252948
-0.1375,-0.141064972935354
-0.13625,-0.1417348187403836
-0.135,-0.1417348187403836
-0.13375,-0.141064972935354
-0.1325,-0.1407300500328392
-0.13125,-0.141064972935354
-0.13,-0.1413998958378688
-0.12875,-0.141064972935354
-0.1275,-0.1390554355202653
-0.12625,-0.1353712835926025
-0.125,-0.1310172858599102
-0.12375,-0.1273331339322474
-0.1225,-0.1246537507121291
-0.12125,-0.1226442132970403
-0.12,-0.1216394445894959
-0.11875,-0.1213045216869811
-0.1175,-0.1209695987844663
-0.11625,-0.1199648300769219
-0.115,-0.118290215564348
-0.11375,-0.1159457552467444
-0.1125,-0.113266372026626
-0.11125,-0.1109219117090225
-0.11,-0.1089123742939337
-0.10875,-0.1069028368788449
-0.1075,-0.1042234536587266
-0.10625,-0.1025488391461526
-0.105,-0.1012091475360934
-0.10375,-0.100204378828549
-0.1025,-0.09886468721848984
-0.10125,-0.09752499560843067
-0.1,-0.0961853039983715
-0.09875,-0.09518053529082712
-0.0975,-0.09484561238831232
-0.09625,-0.09484561238831232
-0.095,-0.0955154581933419
-0.09375,-0.0961853039983715
-0.0925,-0.0968551498034011
-0.09125,-0.0968551498034011
-0.09,-0.09719007270591587
-0.08875,-0.09752499560843067
-0.08749999999999999,-0.09752499560843067
-0.08624999999999999,-0.0965202269008863
-0.08500000000000001,-0.09417576658328272
-0.08375,-0.09149638336316437
-0.0825,-0.08848207724053123
-0.08125,-0.08613761692292765
-0.08,-0.08513284821538328
-0.07875,-0.08580269402041285
-0.0775,-0.08714238563047202
-0.07625,-0.08814715433801643
-0.075,-0.08848207724053123
-0.07375,-0.08747730853298682
-0.0725,-0.08546777111789805
-0.07124999999999999,-0.0834582337028093
-0.07000000000000001,-0.08144869628772053
-0.06875000000000001,-0.07876931306760215
-0.0675,-0.07675977565251341
-0.06625,-0.07508516113993943
-0.065,-0.07307562372485066
-0.06375,-0.07073116340724708
-0.0625,-0.06738193438209913
-0.06125,-0.06369778245443641
-0.06,-0.06034855342928845
-0.05875,-0.05666440150162571
-0.0575,-0.05398501828150735
-0.05625,-0.05197548086641858
-0.055,-0.0506357892563594
-0.05375,-0.05030086635384461
-0.0525,-0.05130563506138899
-0.05125,-0.05365009537899255
-0.05,-0.0573342473066553
-0.04875,-0.06068347633180324
-0.0475,-0.06302793664940681
-0.04625,-0.06369778245443641
-0.045,-0.06369778245443641
-0.04375,-0.06302793664940681
-0.0425,-0.06135332213683284
-0.04125,-0.05800409311168489
-0.04,-0.05431994118402215
-0.03875,-0.05030086635384461
-0.0375,-0.04594686862115228
-0.03625,-0.04259763959600433
-0.035,-0.03991825637588597
-0.03375,-0.03891348766834159
-0.0325,-0.03891348766834159
-0.03125,-0.03891348766834159
-0.03,-0.03857856476582679
-0.02875,-0.03723887315576761
-0.0275,-0.03522933574067885
-0.02625,-0.03288487542307528
-0.025,-0.0312102609105013
-0.02375,-0.02920072349541254
-0.0225,-0.02719118608032377
-0.02125,-0.0248467257627202
-0.02,-0.02283718834763144
-0.01875,-0.02149749673757225
-0.0175,-0.01982288222499828
-0.01625,-0.01747842190739472
-0.015,-0.01412919288224677
-0.01375,-0.0117847325646432
-0.0125,-0.009775195149554437
-0.01125,-0.008100580636980463
-0.01,-0.007095811929436078
-0.008750000000000001,-0.005756120319376899
-0.0075,-0.004081505806802925
-0.00625,-0.001402122586684566
-0.005,0.001277260633433792
-0.00375,0.003286798048522561
-0.0025,0.003286798048522561
-0.00125,0.002951875146007766
0,0.002616952243492972
0.00125,0.002951875146007766
0.0025,0.003956643853552151
0.00375,0.004961412561096535
0.005,0.005966181268640919
0.00625,0.006636027073670509
0.0075,0.006636027073670509
0.008750000000000001,0.006970949976185304
0.01,0.008310641586244484
0.01125,0.01065510190384805
0.0125,0.0133344851239664
0.01375,0.01668371414911436
0.015,0.0200329431742623
0.01625,0.02438694090695464
0.0175,0.03008063024970615
0.01875,0.03677908830000204
0.02,0.04414739215532753
0.02125,0.05151569601065301
0.0225,0.0585490769634637
0.02375,0.0655824579162744
0.025,0.0719459930640555
0.02625,0.07663491369926262
0.0275,0.07964921982189577
0.02875,0.08098891143195497
0.03,0.08132383433446974
0.03125,0.08098891143195497
0.0325,0.08065398852944017
0.03375,0.08065398852944017
0.035,0.08165875723698454
0.03625,0.08299844884704372
0.0375,0.08467306335961769
0.03875,0.08668260077470646
0.04,0.09070167560488401
0.04125,0.09572551914260594
0.0425,0.1004144397778131
0.04375,0.1040985917054758
0.045,0.1067779749255942
0.04625,0.1091224352431977
0.0475,0.1104621268532569
0.04875,0.1114668955608013
0.05,0.1124716642683457
